Sample 24,,
Wavelength (nm),Intensity (a.u.),
400,0.01583811641,
401.0599976,0.02356345952,
401.9599915,0.01496647485,
403.0299988,0.001350023202,
403.9299927,0.03818316758,
405,0.02243306302,
406.0599976,-0.006442950107,
406.9599915,0.02483832277,
408.0299988,0.01586321741,
408.9299927,0.0247645732,
410,0.02457488701,
411.0700073,0.01254735049,
412,0.02127228305,
413.0700073,0.01938975602,
414,0.03159443289,
415.0700073,0.02505695261,
416,0.008718294092,
417.0700073,0.02321518213,
418,0.003124187235,
419.0700073,0.003612442641,
420,-0.008057367988,
421.0599976,-0.003791342024,
421.9599915,0.007075147238,
423.0299988,0.009664518759,
423.9299927,-0.00645246217,
425,0.005671374034,
426.0599976,0.009122000076,
426.9599915,-0.0008072614437,
428.0299988,0.001701979898,
428.9299927,0.01055172272,
430,0,
431.0599976,-0.00265968754,
431.9599915,0.006170385517,
433.0299988,0.006028267089,
433.9299927,0.0008764794911,
435,0.001714767306,
436.0599976,0.00597377168,
436.9599915,0.005073257722,
438.0299988,0,
438.9299927,0.003140057437,
440,-0.001538788201,
441.0599976,0.002280011075,
441.9599915,-0.00153172086,
443.0299988,0.005252171773,
443.9299927,-0.003031559289,
445,-0.01191747747,
446.0599976,0.002164206933,
446.9599915,0.009004432708,
448.0299988,-0.01297260355,
448.9299927,0.004727260675,
450,0.003400628921,
451.0599976,0.007091714535,
451.9599915,-0.0009289070149,
453.0299988,0.03688378632,
453.9299927,0.02080443874,
455,-0.001959074987,
456.0599976,0.006722818594,
456.9599915,0.01305886079,
458.0299988,0.03391264379,
458.9299927,-0.01072752289,
460,-0.003606270766,
461.0599976,-0.008477649651,
461.9599915,-0.01629862376,
463.0299988,0.001106133452,
463.9299927,-0.01407926902,
465,0.007353824563,
466.0599976,0.02776428126,
466.9599915,0.02770942077,
468.0299988,0.01211155578,
468.9299927,0.02230468765,
470,0.02297319099,
471.0400085,0.00452096574,
471.9400024,0.01346460823,
472.980011,0.02911350876,
474.019989,0.04339363053,
475.0700073,0.01687145047,
475.9700012,0.0343340151,
477.0100098,0.04897833988,
478.0499878,0.02672280371,
478.9500122,0.02218287811,
480,-0.004970148206,
481.0599976,0.008504739963,
481.9599915,0.02645650133,
483.0299988,-0.0041955458,
483.9299927,-0.01675876044,
485,-0.008676509373,
486.0599976,-0.003975674976,
486.9599915,-0.005903854966,
488.0299988,-0.01167782489,
488.9299927,0.01864787936,
490,0.01844943315,
491.0400085,0.006381844636,
491.9400024,0.004537663423,
492.980011,0.01161212381,
494.019989,0.0240074005,
495.0700073,0.01056329533,
495.9700012,0.01132457051,
497.0100098,0.02880618721,
498.0499878,0.05672642589,
498.9500122,0.003630172694,
500,0.04392372817,
501.0599976,0.004028538242,
501.9599915,0.06035857275,
503.0299988,0.02747624367,
503.9299927,0.0192848742,
505,0.04496883973,
506.0599976,0.09759575129,
506.9599915,0.105770506,
508.0299988,0.09958925098,
508.9299927,0.134395659,
510,0.1618294269,
511.0400085,0.1200106964,
511.9400024,0.08593949676,
512.9799805,0.07526586205,
514.0200195,0.08976202458,
515.0700073,0.04885416478,
515.9699707,0.03307927027,
517.0100098,0.03012961335,
518.0499878,0.001840559649,
518.9500122,0.0178435687,
520,-0.00733207725,
521.039978,-0.005610958207,
521.9400024,0.05687257648,
522.9799805,0.02420293353,
524.0200195,-0.003509319853,
525.0700073,0.05489014834,
525.9699707,0.01272597443,
527.0100098,0.03323958069,
528.0499878,0.01222979836,
528.9500122,0.005922928452,
530,0.003508349182,
531.0200195,0.01109756064,
532.0499878,0.03776489198,
532.9400024,0.01885511726,
533.9699707,0.0258200001,
535,0.01768044382,
536.0200195,0.003150052857,
537.0499878,0.04439708963,
537.9400024,-0.01328647602,
538.9699707,0.02330726758,
540,-0.003217265243,
541.039978,0.003033529501,
541.9400024,-0.001517063822,
542.9799805,0.03050361574,
544.0200195,-0.001629224396,
545.0700073,0.001798962359,
545.9699707,0.01188010629,
547.0100098,0.02083103359,
548.0499878,0.0485127382,
548.9500122,0.0373127833,
550,0.04165555909,
551.0200195,0.03725878522,
552.0499878,0.09729637206,
552.9400024,0.04002364725,
553.9699707,0.02229164355,
555,0.06163868308,
556.0200195,0.04735264927,
557.0499878,0.03179751337,
557.9400024,0.02543974295,
558.9699707,0.06273919344,
560,0.04091013595,
561.039978,0.1465350091,
561.9400024,0.06913162768,
562.9799805,0.07835324109,
564.0200195,0.08833454549,
565.0700073,0.03842432424,
565.9699707,0.07486150414,
567.0100098,0.08299664408,
568.0499878,0.06648008525,
568.9500122,0.0505915843,
570,0.09458084404,
571.0200195,0.03236706927,
572.0499878,0.0911591351,
572.9400024,0.04368174449,
573.9699707,0.009359673597,
575,-0.03807311878,
576.0200195,0.00333352224,
577.0499878,-0.05975143239,
577.9400024,0.007532701362,
578.9699707,-0.02391915396,
580,-0.01726847142,
581.0200195,0.04903424904,
582.0499878,0.1064011902,
582.9400024,0.009403180331,
583.9699707,-0.02861912735,
585,0.09016448259,
586.0200195,0.1040233374,
587.0499878,0.05100597441,
587.9400024,0.06930807233,
588.9699707,-0.06816663593,
590,0.06295671314,

Sample 24,
Sample 24
Collection Time: 22/08/2023 1:10:47 PM
Operator Name  :
Scan Software Version: 1.2(147)
Parameter List :
Instrument                        Cary Eclipse
Instrument Serial Number          test
Data mode                         Fluorescence
Scan mode                         Excitation
X Mode                            Wavelength (nm)
Start (nm)                        400.00
Stop (nm)                         590.00
Em. Wavelength (nm)               600.00
Ex. Slit (nm)                     5
Em. Slit (nm)                     5
Scan rate (nm/min)                120.00
Data interval (nm)                1.0000
Averaging Time (s)                0.5000
Excitation filter                 Auto
Emission filter                   Open
PMT voltage (V)                   Medium
Corrected spectra                 OFF
Method Log     :
Method Name    : Default
Date/Time stamp: 22/08/2023 11:38:10 AM
Method Modifications:
Overlayed Graphs Changed: 22/08/2023 11:47:15 AM, Old:OFF, New:ON
Scan Control Changed: 22/08/2023 11:47:15 AM, Old:Medium, New:Slow
Ave. time (s): Changed: 22/08/2023 11:47:15 AM, Old:0.10000, New:0.50000
Excitation Wavelength Changed: 22/08/2023 11:47:15 AM, Old: 350.00, New: 340.00
Emission Wavelength Changed: 22/08/2023 11:47:15 AM, Old: 400.00, New: 350.00
Stop Wavelength Changed: 22/08/2023 11:47:15 AM, Old: 600.00, New: 750.00
Excitation Wavelength Changed: 22/08/2023 11:48:29 AM, Old: 340.00, New: 378.00
Emission Wavelength Changed: 22/08/2023 11:48:29 AM, Old: 350.00, New: 390.00
PMT Volts Changed: 22/08/2023 11:52:22 AM, Old:600, New:800
Emission PMT (V): Changed: 22/08/2023 11:52:22 AM, Old: 600, New: 800
Scan mode: Changed: 22/08/2023 11:59:48 AM, Old:Emission, New:Excitation
User Delta Stop Changed: 22/08/2023 11:59:48 AM, Old: 450.00, New: 483.00
User Delta Increment Changed: 22/08/2023 11:59:48 AM, Old:  10.00, New:   0.15
Excitation Wavelength Changed: 22/08/2023 11:59:48 AM, Old: 378.00, New: 220.00
Emission Wavelength Changed: 22/08/2023 11:59:48 AM, Old: 390.00, New: 483.00
Stop Wavelength Changed: 22/08/2023 11:59:48 AM, Old: 750.00, New: 373.00
Stop Wavelength Changed: 22/08/2023 12:02:41 PM, Old: 373.00, New: 473.00
PMT Volts Changed: 22/08/2023 12:08:26 PM, Old:800, New:600
Emission PMT (V): Changed: 22/08/2023 12:08:26 PM, Old: 800, New: 600
Scan mode: Changed: 22/08/2023 12:08:56 PM, Old:Excitation, New:Emission
Excitation Wavelength Changed: 22/08/2023 12:08:56 PM, Old: 220.00, New: 325.00
Emission Wavelength Changed: 22/08/2023 12:08:56 PM, Old: 483.00, New: 335.00
Stop Wavelength Changed: 22/08/2023 12:08:56 PM, Old: 473.00, New: 750.00
Scan mode: Changed: 22/08/2023 12:18:15 PM, Old:Emission, New:Excitation
User Delta Stop Changed: 22/08/2023 12:18:15 PM, Old: 483.00, New: 500.00
Excitation Wavelength Changed: 22/08/2023 12:18:15 PM, Old: 325.00, New: 220.00
Emission Wavelength Changed: 22/08/2023 12:18:15 PM, Old: 335.00, New: 500.00
Stop Wavelength Changed: 22/08/2023 12:18:15 PM, Old: 750.00, New: 490.00
Scan mode: Changed: 22/08/2023 12:25:59 PM, Old:Excitation, New:Emission
Excitation Wavelength Changed: 22/08/2023 12:25:59 PM, Old: 220.00, New: 400.00
Emission Wavelength Changed: 22/08/2023 12:25:59 PM, Old: 500.00, New: 410.00
Stop Wavelength Changed: 22/08/2023 12:25:59 PM, Old: 490.00, New: 750.00
Scan mode: Changed: 22/08/2023 12:35:24 PM, Old:Emission, New:Excitation
Excitation Wavelength Changed: 22/08/2023 12:35:24 PM, Old: 400.00, New: 410.00
Emission Wavelength Changed: 22/08/2023 12:35:24 PM, Old: 410.00, New: 400.00
User Delta Stop Changed: 22/08/2023 12:35:35 PM, Old: 500.00, New: 520.00
Excitation Wavelength Changed: 22/08/2023 12:35:35 PM, Old: 410.00, New: 220.00
Emission Wavelength Changed: 22/08/2023 12:35:35 PM, Old: 400.00, New: 520.00
Stop Wavelength Changed: 22/08/2023 12:35:35 PM, Old: 750.00, New: 510.00
Scan mode: Changed: 22/08/2023 12:41:42 PM, Old:Excitation, New:Emission
Excitation Wavelength Changed: 22/08/2023 12:41:42 PM, Old: 220.00, New: 330.00
Emission Wavelength Changed: 22/08/2023 12:41:42 PM, Old: 520.00, New: 340.00
Stop Wavelength Changed: 22/08/2023 12:41:42 PM, Old: 510.00, New: 650.00
Scan mode: Changed: 22/08/2023 12:49:06 PM, Old:Emission, New:Excitation
Excitation Wavelength Changed: 22/08/2023 12:49:06 PM, Old: 330.00, New: 220.00
Emission Wavelength Changed: 22/08/2023 12:49:06 PM, Old: 340.00, New: 400.00
Stop Wavelength Changed: 22/08/2023 12:49:06 PM, Old: 650.00, New: 390.00
Scan mode: Changed: 22/08/2023 12:53:51 PM, Old:Excitation, New:Emission
Excitation Wavelength Changed: 22/08/2023 12:53:51 PM, Old: 220.00, New: 460.00
Emission Wavelength Changed: 22/08/2023 12:53:51 PM, Old: 400.00, New: 470.00
Stop Wavelength Changed: 22/08/2023 12:53:51 PM, Old: 390.00, New: 800.00
Scan mode: Changed: 22/08/2023 1:05:37 PM, Old:Emission, New:Excitation
User Delta Stop Changed: 22/08/2023 1:05:37 PM, Old: 520.00, New: 540.00
Excitation Wavelength Changed: 22/08/2023 1:05:37 PM, Old: 460.00, New: 220.00
Emission Wavelength Changed: 22/08/2023 1:05:37 PM, Old: 470.00, New: 540.00
Stop Wavelength Changed: 22/08/2023 1:05:37 PM, Old: 800.00, New: 530.00
User Delta Stop Changed: 22/08/2023 1:08:47 PM, Old: 540.00, New: 600.00
Excitation Wavelength Changed: 22/08/2023 1:08:47 PM, Old: 220.00, New: 400.00
Emission Wavelength Changed: 22/08/2023 1:08:47 PM, Old: 540.00, New: 600.00
Stop Wavelength Changed: 22/08/2023 1:08:47 PM, Old: 530.00, New: 590.00
End Method Modifications

