Sample 8,,
Wavelength (nm),Intensity (a.u.),
220,-0.2267426699,
220.9299927,-0.2235511094,
222.0299988,-0.2640739679,
222.9600067,0.2809890807,
224.0599976,-0.2952465415,
225,0.1730902493,
225.9299927,-0.01775930822,
227.0299988,0.1772211641,
227.9600067,0.03157429397,
229.0599976,0.09510675818,
230,0.01422859635,
230.9299927,0.02411893569,
232.0299988,0.02661669813,
232.9600067,0.05426033959,
234.0599976,0.03720469028,
235,0.200042516,
235.9299927,0.07502625883,
237.0299988,0.1629261523,
237.9600067,0.02163062617,
239.0599976,0.05331982672,
240,0.101012744,
240.9299927,-0.04711456969,
242.0299988,0.02585597523,
242.9600067,-0.07549488544,
244.0599976,0.02719151229,
245,0.06477807462,
245.9299927,0.03286749125,
247.0299988,0.03900091723,
247.9600067,0.03397655115,
249.0599976,-0.01653978415,
250,0.0182827767,
250.9299927,0.01124685444,
252.0299988,-0.05874114484,
252.9600067,0.003389267484,
254.0599976,0.1240949929,
255,0.02709513158,
255.9299927,0.0557737574,
257.0299988,-0.0278281644,
257.9599915,0.05236073956,
259.0599976,0.02201624773,
260,-0.01422733068,
261.0700073,0.0322791338,
262,0.03334514424,
263.0700073,-0.02449343167,
264,0,
265.0700073,0.009450701065,
266,-0.01957185566,
267.0700073,0,
268,0.03429445252,
269.0700073,0.0340898931,
270,0,
270.9299927,0.01833238639,
272.0299988,0.02990420721,
272.9599915,0.05766474828,
274.0599976,0.0348771736,
275,0.02947103232,
275.9299927,0.0483587794,
277.0299988,0.01078810729,
277.9599915,0.04894369096,
279.0599976,0.04392975569,
280,-0.0101651838,
280.9299927,0.02510195225,
282.0299988,0.01338921115,
282.9599915,0.02785292268,
284.0599976,0.008825252764,
285,-0.008625180461,
285.9299927,-0.01661554538,
287.0299988,-0.02479293756,
287.9599915,0.01379498281,
289.0599976,0.003485547379,
290,-0.003522553248,
291.0700073,0.01509980951,
292,0.06579949707,
293.0700073,0.02065839991,
294,0.04776174575,
295.0700073,0.06540650129,
296,0.04722037166,
297.0700073,0.1012505218,
298,0.103640534,
299.0700073,0.08729690313,
300,0.09516842663,
300.9299927,0.1037520319,
302.0299988,0.1159273684,
302.9599915,0.1604488939,
304.0599976,0.1023165807,
305,0.1326555163,
305.9299927,0.10755077,
307.0299988,0.1222637966,
307.9599915,0.1202419698,
309.0599976,0.1490554065,
310,0.06009665132,
311.0700073,0.08842915297,
312,0.1084608734,
313.0700073,0.05954096094,
314,0.08598908782,
315.0700073,0.1135365292,
316,0.1057400182,
317.0700073,0.1394654661,
318,0.1561323255,
319.0700073,0.1188499108,
320,0.08317945153,
321.0700073,0.1805155277,
322,0.1371435374,
323.0700073,0.09744487703,
324,0.1213653311,
325.0700073,0.080082573,
326,0.07066681981,
327.0700073,0.1463124305,
328,0.09240101278,
329.0700073,0.1003596187,
330,0.1527106017,
330.9299927,0.1140951067,
332.0299988,0.04629614204,
332.9599915,0.191125825,
334.0599976,0.07338984311,
335,0.1576743126,
335.9299927,0.1265009493,
337.0299988,0.09601473063,
337.9599915,0.09836743772,
339.0599976,0.0683786422,
340,0.1678274721,
341.0700073,0.103778176,
342,0.1301351935,
343.0700073,0.05393565446,
344,0.06454963237,
345.0700073,0.09242336452,
346,0.09949918836,
347.0700073,0.1326341778,
348,0.06276144087,
349.0700073,0.07936241478,
350,0.04396764189,
351.0700073,0.038183745,
352,0.09690678865,
353.0700073,0.03076631017,
354,0.0687257573,
355.0700073,0.08453121781,
356,0.02280747518,
357.0700073,0.0754949078,
358,0.07249785215,
359.0700073,0.02029618993,
360,0.0725325644,
361.0700073,0.05993870646,
362,0.057445243,
363.0700073,0.05449888483,
364,0.05244683847,
365.0700073,0.07409147918,
366,0.09292773902,
367.0700073,0.04853921384,
368,0.05267568305,
369.0700073,0.05015208572,
370,0.07200298458,
371.0599976,0.01989618689,
371.9599915,0.1126235873,
373.0299988,0.09461146593,
373.9299927,0.05143503472,
375,0.07683560252,
376.0599976,0.03136942163,
376.9599915,0.0238476526,
378.0299988,0.06390662491,
378.9299927,0.06378293037,
380,0.05972645059,
381.0700073,0.03929508105,
382,0.02027739584,
383.0700073,0.05412182957,
384,0.0276663918,
385.0700073,0.04181902856,
386,0.06351865828,
387.0700073,0.05904562771,
388,0.0392723009,
389.0700073,0.03608360514,
390,0.05714536831,
391.0700073,0.06343764067,
392,0.01243105903,
393.0700073,0.04811033607,
394,0.01121178363,
395.0700073,0.02408232167,
396,0.03411804885,
397.0700073,0.05938551947,
398,0.03261844441,
399.0700073,0.0567759946,
400,0.02856759168,
401.0599976,0.04922033474,
401.9599915,0.02892837487,
403.0299988,0.05690459535,
403.9299927,0.04005452618,
405,0.0235438738,
406.0599976,0.06844609976,
406.9599915,0.01033226028,
408.0299988,0.03061478585,
408.9299927,0.006424134132,
410,0.02646269463,
411.0700073,0.04433848336,
412,0.02217742987,
413.0700073,0.04039683938,
414,0.0142570585,
415.0700073,0.02156159282,
416,0.03937923163,
417.0700073,0.006719741505,
418,0.002282497007,
419.0700073,0.01442260481,
420,0.01677418873,
421.0599976,0.01442445815,
421.9599915,0.007530786563,
423.0299988,0.004446720239,
423.9299927,0.01226725243,
425,0.01789268479,
426.0599976,0.003615349997,
426.9599915,-0.004628900904,
428.0299988,0.006656853016,
428.9299927,0.02249165997,
430,0.004407795146,
431.0599976,-0.007746320218,
431.9599915,0.008629371412,
433.0299988,0.004228601698,
433.9299927,0.01765529253,
435,0.006655075587,
436.0599976,0.01441953704,
436.9599915,0.01551225595,
438.0299988,0.01109376643,
438.9299927,0.01843422838,
440,0.02003413253,
441.0599976,-0.0007320397999,
441.9599915,0.02597302385,
443.0299988,0.01988179982,
443.9299927,0.006551315077,
445,0.01647899672,
446.0599976,0.007904264145,
446.9599915,0.01217749342,
448.0299988,0.005995828193,
448.9299927,0.006287015043,
450,0.0224066209,
451.0599976,0.002661880106,
451.9599915,0.02554774843,
453.0299988,0.01504214667,
453.9299927,0.02805035561,
455,0.03024611622,
456.0599976,0.04011492059,
456.9599915,0.02591757476,
458.0299988,0.05989688635,
458.9299927,0.09716174006,
460,0.08574122936,
461.0599976,0.1336400658,
461.9599915,0.1725601554,
463.0299988,0.1519230008,
463.9299927,0.1276542842,
465,0.13293311,
466.0599976,0.1085915416,
466.9599915,0.08796039224,
468.0299988,0.05735230446,
468.9299927,0.0517632924,
470,0.04828763381,
471.0400085,0.04830574989,
471.9400024,0.05096995831,
472.980011,0.0267442055,
474.019989,0.06991342455,
475.0700073,0.02391500585,
475.9700012,0.03151837364,
477.0100098,0.03696704656,
478.0499878,0.04057124257,
478.9500122,0.02042939886,
480,0.05672197416,
481.0599976,0.06511008739,
481.9599915,0.02873057127,
483.0299988,0.02592686564,
483.9299927,0.03531663492,
485,0.03957141191,
486.0599976,0.0284873452,
486.9599915,0.03451922536,
488.0299988,0.03503416851,
488.9299927,0.04474734515,
490,0.06061929837,
491.0400085,0.06156466529,
491.9400024,0.05628709495,
492.980011,0.07132141292,
494.019989,0.1166077107,
495.0700073,0.1448107064,
495.9700012,0.1426449865,
497.0100098,0.09951625019,
498.0499878,0.127066806,
498.9500122,0.1176888049,
500,0.1146773621,
501.0599976,0.1422154754,
501.9599915,0.1315789372,
503.0299988,0.09901399165,
503.9299927,0.08168090135,
505,0.07906602323,
506.0599976,0.09919835627,
506.9599915,0.07295867801,
508.0299988,0.1370384693,
508.9299927,0.0816629678,
510,0.07156714797,
511.0400085,0.0791695267,
511.9400024,0.116641432,
512.9799805,0.07123112679,
514.0200195,0.05055218562,
515.0700073,0.07388410717,
515.9699707,0.08685917407,
517.0100098,0.06995748729,
518.0499878,0.06798363477,
518.9500122,0.08102428913,
520,0.05938220769,
521.039978,0.03687961772,
521.9400024,0.01881095953,
522.9799805,0.01284052618,
524.0200195,0.02459177561,
525.0700073,0.05415159464,
525.9699707,0.0363250263,
527.0100098,0.05310795456,
528.0499878,0.02908847295,
528.9500122,0.06919331849,
530,0.03597385064,

Sample 8,
Sample 8
Collection Time: 8/08/2023 4:13:10 PM
Operator Name  :
Scan Software Version: 1.2(147)
Parameter List :
Instrument                        Cary Eclipse
Instrument Serial Number          test
Data mode                         Fluorescence
Scan mode                         Excitation
X Mode                            Wavelength (nm)
Start (nm)                        220.00
Stop (nm)                         530.00
Em. Wavelength (nm)               540.00
Ex. Slit (nm)                     5
Em. Slit (nm)                     5
Scan rate (nm/min)                120.00
Data interval (nm)                1.0000
Averaging Time (s)                0.5000
Excitation filter                 Auto
Emission filter                   Open
PMT voltage (V)                   Medium
Corrected spectra                 OFF
Method Log     :
Method Name    : Default
Date/Time stamp: 8/08/2023 3:45:53 PM
Method Modifications:
Overlayed Graphs Changed: 8/08/2023 3:46:16 PM, Old:OFF, New:ON
Scan Control Changed: 8/08/2023 3:46:16 PM, Old:Medium, New:Slow
Ave. time (s): Changed: 8/08/2023 3:46:16 PM, Old:0.10000, New:0.50000
Excitation Wavelength Changed: 8/08/2023 3:46:16 PM, Old: 350.00, New: 390.00
Stop Wavelength Changed: 8/08/2023 3:46:16 PM, Old: 600.00, New: 700.00
Scan mode: Changed: 8/08/2023 3:53:59 PM, Old:Emission, New:Excitation
User Delta Stop Changed: 8/08/2023 3:53:59 PM, Old: 450.00, New: 550.00
User Delta Increment Changed: 8/08/2023 3:53:59 PM, Old:  10.00, New:   0.15
Excitation Wavelength Changed: 8/08/2023 3:53:59 PM, Old: 390.00, New: 220.00
Emission Wavelength Changed: 8/08/2023 3:53:59 PM, Old: 400.00, New: 550.00
Stop Wavelength Changed: 8/08/2023 3:53:59 PM, Old: 700.00, New: 540.00
Scan mode: Changed: 8/08/2023 4:01:40 PM, Old:Excitation, New:Emission
Excitation Wavelength Changed: 8/08/2023 4:01:40 PM, Old: 220.00, New: 420.00
Emission Wavelength Changed: 8/08/2023 4:01:40 PM, Old: 550.00, New: 430.00
Stop Wavelength Changed: 8/08/2023 4:01:40 PM, Old: 540.00, New: 700.00
Scan mode: Changed: 8/08/2023 4:08:47 PM, Old:Emission, New:Excitation
Excitation Wavelength Changed: 8/08/2023 4:08:47 PM, Old: 420.00, New: 220.00
Emission Wavelength Changed: 8/08/2023 4:08:47 PM, Old: 430.00, New: 540.00
Stop Wavelength Changed: 8/08/2023 4:08:47 PM, Old: 700.00, New: 530.00
End Method Modifications

