Sample 11,,
Wavelength (nm),Intensity (a.u.),
220,13.42788124,
220.9299927,14.0393095,
222.0299988,11.03432941,
222.9600067,9.164776802,
224.0599976,6.797748566,
225,5.404236794,
225.9299927,4.029410362,
227.0299988,3.052596331,
227.9600067,2.274910212,
229.0599976,2.322487116,
230,2.800858974,
230.9299927,2.423180103,
232.0299988,2.94248271,
232.9600067,2.757828236,
234.0599976,3.250237465,
235,3.648824453,
235.9299927,3.596367836,
237.0299988,3.326540232,
237.9600067,2.887152195,
239.0599976,2.410445452,
240,2.178281069,
240.9299927,2.021930218,
242.0299988,1.844387293,
242.9600067,1.834650517,
244.0599976,1.599642396,
245,1.531799197,
245.9299927,1.500978589,
247.0299988,1.505364895,
247.9600067,1.568706036,
249.0599976,1.898668647,
250,2.056087017,
250.9299927,2.388901949,
252.0299988,2.602744102,
252.9600067,2.863640308,
254.0599976,3.167105198,
255,2.703485489,
255.9299927,2.545667887,
257.0299988,2.350246906,
257.9599915,2.225304604,
259.0599976,2.613536835,
260,3.706650257,
261.0700073,7.140599251,
262,14.49275398,
263.0700073,31.72317886,
264,51.82066345,
265.0700073,84.41819,
266,118.8944397,
267.0700073,170.2864685,
268,205.5954132,
269.0700073,244.6581421,
270,278.295929,
270.9299927,292.4247437,
272.0299988,308.4387512,
272.9599915,313.5113525,
274.0599976,308.8370361,
275,298.4824219,
275.9299927,275.6035156,
277.0299988,247.5761871,
277.9599915,226.1205444,
279.0599976,201.7828827,
280,179.7510986,
280.9299927,164.7032928,
282.0299988,151.3470306,
282.9599915,143.0388184,
284.0599976,134.3771973,
285,131.0332794,
285.9299927,129.888855,
287.0299988,128.8044434,
287.9599915,128.9918823,
289.0599976,131.2913513,
290,136.4916534,
291.0700073,139.1161499,
292,142.276474,
293.0700073,147.4983368,
294,149.9351959,
295.0700073,151.2508087,
296,150.821579,
297.0700073,149.4981384,
298,148.565918,
299.0700073,146.4707184,
300,147.5011139,
300.9299927,148.3714905,
302.0299988,152.3084564,
302.9599915,156.9874725,
304.0599976,166.1557617,
305,182.8155212,
305.9299927,194.8077545,
307.0299988,215.2994995,
307.9599915,225.5829315,
309.0599976,230.3656769,
310,232.9812622,
311.0700073,220.4136963,
312,201.4245453,
313.0700073,177.0044098,
314,153.1727905,
315.0700073,120.53125,
316,95.64389801,
317.0700073,71.42176819,
318,59.18564987,
319.0700073,48.10138321,
320,39.19078064,
321.0700073,32.59535599,
322,27.93982315,
323.0700073,24.90590477,
324,22.42796898,
325.0700073,20.24226761,
326,18.49405479,
327.0700073,17.24454498,
328,16.13515282,
329.0700073,14.94574356,
330,14.6682148,
330.9299927,13.79915905,
332.0299988,13.16889668,
332.9599915,12.72768211,
334.0599976,12.30292892,
335,12.34346199,
335.9299927,11.93922997,
337.0299988,11.70080185,
337.9599915,11.43945026,
339.0599976,11.54692936,
340,11.35561848,
341.0700073,10.9490242,
342,11.4040041,
343.0700073,11.34317684,
344,10.86892414,
345.0700073,10.82330894,
346,10.97727394,
347.0700073,10.96837711,
348,11.49461651,
349.0700073,12.03208542,
350,12.03598881,
351.0700073,12.55584431,
352,12.90020466,
353.0700073,13.52820301,
354,14.24924278,
355.0700073,14.88082218,
356,15.26290894,
357.0700073,16.51058578,
358,16.76497269,
359.0700073,17.0662117,
360,17.55640984,
361.0700073,17.40267563,
362,17.82591629,
363.0700073,17.98220062,
364,18.20713425,
365.0700073,19.64955139,
366,20.38896179,
367.0700073,21.10798073,
368,22.42292404,
369.0700073,23.30669212,
370,25.51712036,
371.0599976,26.99880981,
371.9599915,28.91600037,
373.0299988,30.75011635,
373.9299927,32.29192734,
375,34.04610825,
376.0599976,35.09112549,
376.9599915,36.32107162,
378.0299988,37.16284943,
378.9299927,39.12654495,
380,41.15911865,
381.0700073,42.74831772,
382,43.30876541,
383.0700073,44.82099915,
384,45.23167419,
385.0700073,46.40543365,
386,47.75848007,
387.0700073,50.20273209,
388,52.25324631,
389.0700073,54.37058258,
390,56.94181061,
391.0700073,59.9654808,
392,60.96800232,
393.0700073,62.88234329,
394,65.34442139,
395.0700073,67.61868286,
396,71.37543488,
397.0700073,76.24110413,
398,80.82709503,
399.0700073,83.9703598,
400,88.099617,
401.0599976,92.97766876,
401.9599915,96.52288055,
403.0299988,98.74156952,
403.9299927,103.0718918,
405,104.9483719,
406.0599976,109.7232895,
406.9599915,113.4087067,
408.0299988,116.7145386,
408.9299927,119.8082504,
410,123.5495529,
411.0700073,127.8679962,
412,131.5303802,
413.0700073,138.7777557,
414,143.0310059,
415.0700073,146.1509552,
416,150.441391,
417.0700073,156.2033081,
418,157.753067,
419.0700073,160.5529633,
420,163.9671326,
421.0599976,167.2017517,
421.9599915,172.793045,
423.0299988,174.6611938,
423.9299927,177.9733582,
425,184.2445831,
426.0599976,188.9509277,
426.9599915,193.459198,
428.0299988,200.724884,
428.9299927,208.0954437,
430,218.2167358,
431.0599976,224.2605133,
431.9599915,228.5371857,
433.0299988,231.2974091,
433.9299927,236.2384186,
435,243.0055084,
436.0599976,244.5662994,
436.9599915,252.2432251,
438.0299988,253.0835266,
438.9299927,253.3327026,
440,253.6254272,
441.0599976,248.3626404,
441.9599915,245.7923584,
443.0299988,240.8271027,
443.9299927,240.1381226,
445,235.1356812,
446.0599976,229.5397491,
446.9599915,225.6588745,
448.0299988,222.8000488,
448.9299927,221.8980255,
450,223.3502655,
451.0599976,229.5643311,
451.9599915,233.7116089,
453.0299988,243.0695953,
453.9299927,248.8923798,
455,261.4804077,
456.0599976,269.3338928,
456.9599915,282.7968445,
458.0299988,283.9072571,
458.9299927,286.1736755,
460,284.1002808,
461.0599976,287.9553528,
461.9599915,289.2706299,
463.0299988,297.8872986,
463.9299927,302.9306641,
465,304.5625305,
466.0599976,305.464386,
466.9599915,300.9276428,
468.0299988,296.6137695,
468.9299927,288.6056824,
470,277.9704285,
471.0400085,259.0132446,
471.9400024,244.9371338,
472.980011,217.2073212,
474.019989,186.9403076,
475.0700073,157.1715393,
475.9700012,132.7193909,
477.0100098,107.2441559,
478.0499878,83.32778168,
478.9500122,67.01848602,
480,51.85808563,
481.0599976,37.82735443,
481.9599915,29.92551804,
483.0299988,23.22562218,
483.9299927,20.08874512,
485,15.92329121,
486.0599976,12.11858559,
486.9599915,9.596273422,
488.0299988,7.423716545,
488.9299927,5.972886086,
490,5.024940491,
491.0400085,4.079732895,
491.9400024,3.541285753,
492.980011,3.028548241,
494.019989,2.728071928,
495.0700073,2.415242195,
495.9700012,2.311179876,
497.0100098,2.063893318,
498.0499878,1.936803818,
498.9500122,1.8754251,
500,1.685371757,
501.0599976,1.767490149,
501.9599915,1.808540821,
503.0299988,1.590188861,
503.9299927,1.645408869,
505,1.38559401,
506.0599976,1.368499637,
506.9599915,1.331236959,
508.0299988,1.284656763,
508.9299927,1.347708821,
510,1.213700056,
511.0400085,1.077293277,
511.9400024,1.150932312,
512.9799805,1.04047966,
514.0200195,1.195883512,
515.0700073,0.9987619519,
515.9699707,1.050128818,
517.0100098,0.939858377,
518.0499878,0.88569206,
518.9500122,0.862157464,
520,0.7759615779,

Sample 11,
Sample 11
Collection Time: 25/07/2023 4:12:42 PM
Operator Name  :
Scan Software Version: 1.2(147)
Parameter List :
Instrument                        Cary Eclipse
Instrument Serial Number          test
Data mode                         Fluorescence
Scan mode                         Excitation
X Mode                            Wavelength (nm)
Start (nm)                        220.00
Stop (nm)                         520.00
Em. Wavelength (nm)               534.00
Ex. Slit (nm)                     5
Em. Slit (nm)                     5
Scan rate (nm/min)                600.00
Data interval (nm)                1.0000
Averaging Time (s)                0.1000
Excitation filter                 Auto
Emission filter                   Open
PMT voltage (V)                   Medium
Corrected spectra                 OFF
Method Log     :
Method Name    : Default
Date/Time stamp: 25/07/2023 3:18:52 PM
Method Modifications:
Overlayed Graphs Changed: 25/07/2023 3:40:07 PM, Old:OFF, New:ON
PMT Volts Changed: 25/07/2023 3:40:07 PM, Old:600, New:800
Scan Control Changed: 25/07/2023 3:40:07 PM, Old:Medium, New:Manual
Ave. time (s): Changed: 25/07/2023 3:40:07 PM, Old:0.10000, New:0.50000
Emission PMT (V): Changed: 25/07/2023 3:40:07 PM, Old: 600, New: 800
Excitation Wavelength Changed: 25/07/2023 3:40:35 PM, Old: 350.00, New: 380.00
Emission Wavelength Changed: 25/07/2023 3:40:35 PM, Old: 400.00, New: 390.00
Stop Wavelength Changed: 25/07/2023 3:40:35 PM, Old: 600.00, New: 700.00
Stop Wavelength Changed: 25/07/2023 3:43:33 PM, Old: 700.00, New: 800.00
Scan mode: Changed: 25/07/2023 3:51:37 PM, Old:Emission, New:Excitation
Excitation Wavelength Changed: 25/07/2023 3:51:37 PM, Old: 380.00, New: 220.00
Emission Wavelength Changed: 25/07/2023 3:51:37 PM, Old: 390.00, New: 293.00
Stop Wavelength Changed: 25/07/2023 3:51:37 PM, Old: 800.00, New: 283.00
User Delta Stop Changed: 25/07/2023 3:52:40 PM, Old: 450.00, New: 500.00
User Delta Increment Changed: 25/07/2023 3:52:40 PM, Old:  10.00, New:   0.15
Emission Wavelength Changed: 25/07/2023 3:52:40 PM, Old: 293.00, New: 500.00
Stop Wavelength Changed: 25/07/2023 3:52:40 PM, Old: 283.00, New: 490.00
Scan mode: Changed: 25/07/2023 4:08:59 PM, Old:Excitation, New:Emission
Scan Control Changed: 25/07/2023 4:08:59 PM, Old:Manual, New:Medium
Ave. time (s): Changed: 25/07/2023 4:08:59 PM, Old:0.50000, New:0.10000
Excitation Wavelength Changed: 25/07/2023 4:08:59 PM, Old: 220.00, New: 440.00
Emission Wavelength Changed: 25/07/2023 4:08:59 PM, Old: 500.00, New: 450.00
Stop Wavelength Changed: 25/07/2023 4:08:59 PM, Old: 490.00, New: 750.00
PMT Volts Changed: 25/07/2023 4:09:53 PM, Old:800, New:600
Emission PMT (V): Changed: 25/07/2023 4:09:53 PM, Old: 800, New: 600
Excitation Wavelength Changed: 25/07/2023 4:09:53 PM, Old: 440.00, New: 430.00
Emission Wavelength Changed: 25/07/2023 4:09:53 PM, Old: 450.00, New: 440.00
Excitation Wavelength Changed: 25/07/2023 4:10:22 PM, Old: 430.00, New: 420.00
Emission Wavelength Changed: 25/07/2023 4:10:22 PM, Old: 440.00, New: 430.00
Scan mode: Changed: 25/07/2023 4:12:38 PM, Old:Emission, New:Excitation
User Delta Stop Changed: 25/07/2023 4:12:38 PM, Old: 500.00, New: 534.00
Excitation Wavelength Changed: 25/07/2023 4:12:38 PM, Old: 420.00, New: 220.00
Emission Wavelength Changed: 25/07/2023 4:12:38 PM, Old: 430.00, New: 534.00
Stop Wavelength Changed: 25/07/2023 4:12:38 PM, Old: 750.00, New: 520.00
End Method Modifications

