Sample 41,,
Wavelength (nm),Intensity (a.u.),
220,-0.03165759146,
220.9299927,0.871447444,
222.0299988,0.1916167736,
222.9600067,0.3221260309,
224.0599976,0.3151988685,
225,0.06799329072,
225.9299927,0.07795380056,
227.0299988,0.01363977417,
227.9600067,-0.04451071471,
229.0599976,0.07705125213,
230,-0.07247217,
230.9299927,0.01536208391,
232.0299988,0.1092597693,
232.9600067,0.02930317074,
234.0599976,0.01260517444,
235,0.123945646,
235.9299927,-0.06497430056,
237.0299988,-0.08710043132,
237.9600067,0.09851299971,
239.0599976,0.05491136387,
240,-0.02242445759,
240.9299927,-0.05054811016,
242.0299988,0.02701875009,
242.9600067,0.02711026371,
244.0599976,0.01524297334,
245,0.006995192263,
245.9299927,-0.01563588902,
247.0299988,0.03859232366,
247.9600067,0.04278441146,
249.0599976,0.03445670381,
250,-0.02728483267,
250.9299927,0.02096724883,
252.0299988,0.08131033182,
252.9600067,0.03155016527,
254.0599976,0.0691203177,
255,0.07498270273,
255.9299927,0.120279789,
257.0299988,0.04335197434,
257.9599915,0.01931380294,
259.0599976,0.005644912366,
260,0.01486704219,
261.0700073,0.005803336389,
262,0.05391544476,
263.0700073,0.0640174076,
264,0.04575017095,
265.0700073,0.00472253887,
266,0.02022199333,
267.0700073,0.01462727599,
268,0,
269.0700073,0.03177766129,
270,-0.008504154161,
270.9299927,0.04108200222,
272.0299988,0.02519826964,
272.9599915,0.02879842743,
274.0599976,0.001715003978,
275,0.003684184281,
275.9299927,0.05820765346,
277.0299988,0.04672574252,
277.9599915,0.03799337149,
279.0599976,0.02864113078,
280,0.0144966254,
280.9299927,0.009625027888,
282.0299988,-0.01148916781,
282.9599915,0.02409067005,
284.0599976,0.03337291256,
285,-0.009056231938,
285.9299927,0.04775386304,
287.0299988,-0.001726698247,
287.9599915,0.02859047242,
289.0599976,0.01047065575,
290,-0.01757178828,
291.0700073,0.05708592013,
292,0.01878797077,
293.0700073,0.08110903203,
294,0.1170072481,
295.0700073,0.1486954689,
296,0.2130807191,
297.0700073,0.2822536528,
298,0.3659646213,
299.0700073,0.4417649806,
300,0.501486659,
300.9299927,0.5898637176,
302.0299988,0.5832441449,
302.9599915,0.6418396235,
304.0599976,0.6596411467,
305,0.7199938893,
305.9299927,0.6810772419,
307.0299988,0.6970008016,
307.9599915,0.7390915751,
309.0599976,0.6954645514,
310,0.7295991778,
311.0700073,0.7255437374,
312,0.6729442477,
313.0700073,0.6927167773,
314,0.7018707395,
315.0700073,0.7566010952,
316,0.8036725521,
317.0700073,0.7258996367,
318,0.6893152595,
319.0700073,0.7252841592,
320,0.7765716314,
321.0700073,0.7336274385,
322,0.667260468,
323.0700073,0.7403162718,
324,0.6855742931,
325.0700073,0.7683277726,
326,0.6174826026,
327.0700073,0.7036030889,
328,0.6435576081,
329.0700073,0.6038095951,
330,0.7321409583,
330.9299927,0.6630160213,
332.0299988,0.6922727823,
332.9599915,0.6740943789,
334.0599976,0.652571559,
335,0.7279604673,
335.9299927,0.7415992618,
337.0299988,0.6030484438,
337.9599915,0.6132686734,
339.0599976,0.6535925269,
340,0.6874751449,
341.0700073,0.566328764,
342,0.5787518024,
343.0700073,0.5898789167,
344,0.5179989338,
345.0700073,0.4705508649,
346,0.5239684582,
347.0700073,0.4478280246,
348,0.5125544071,
349.0700073,0.4030423164,
350,0.4784379005,
351.0700073,0.3356312811,
352,0.3569590449,
353.0700073,0.3861991167,
354,0.4095143676,
355.0700073,0.3195931017,
356,0.3565210402,
357.0700073,0.3749765754,
358,0.3464908302,
359.0700073,0.3246875405,
360,0.3158266246,
361.0700073,0.3385193348,
362,0.3048291504,
363.0700073,0.2763421834,
364,0.2490567863,
365.0700073,0.2756092548,
366,0.2844936848,
367.0700073,0.2792589366,
368,0.264212966,
369.0700073,0.2791743279,
370,0.2495409846,
371.0599976,0.2805661857,
371.9599915,0.2208244056,
373.0299988,0.2509177327,
373.9299927,0.232211113,
375,0.2292587161,
376.0599976,0.2539387643,
376.9599915,0.2312134504,
378.0299988,0.2354267985,
378.9299927,0.2531876266,
380,0.2179757357,
381.0700073,0.2434087992,
382,0.2031311691,
383.0700073,0.2231134474,
384,0.2405124009,
385.0700073,0.2543316782,
386,0.217869997,
387.0700073,0.1845648289,
388,0.1932698041,
389.0700073,0.1788263619,
390,0.1599276215,
391.0700073,0.1633679271,
392,0.1706391424,
393.0700073,0.1781878322,
394,0.1209189892,
395.0700073,0.1931412965,
396,0.2116113007,
397.0700073,0.2529550791,
398,0.2500571012,
399.0700073,0.3781087399,
400,0.4467867911,
401.0599976,0.5286282897,
401.9599915,0.4812629819,
403.0299988,0.4914477468,
403.9299927,0.4027343988,
405,0.3309263885,
406.0599976,0.2475114614,
406.9599915,0.2011999041,
408.0299988,0.1472840011,
408.9299927,0.1011957079,
410,0.1119932905,
411.0700073,0.112881586,
412,0.1032215282,
413.0700073,0.1358771473,
414,0.07467457652,
415.0700073,0.09498648345,
416,0.07878994197,
417.0700073,0.06155761331,
418,0.06422140449,
419.0700073,0.06095106527,
420,0.06410178542,
421.0599976,0.05061358958,
421.9599915,0.06436932087,
423.0299988,0.07585184276,
423.9299927,0.07739078254,
425,0.1027530134,
426.0599976,0.09142183512,
426.9599915,0.09694436193,
428.0299988,0.1165203974,
428.9299927,0.1123371944,
430,0.1299300641,
431.0599976,0.1235732362,
431.9599915,0.1132071465,
433.0299988,0.1347810477,
433.9299927,0.1612927169,
435,0.1583921313,
436.0599976,0.1832902431,
436.9599915,0.1945190728,
438.0299988,0.1947755963,
438.9299927,0.1962744594,
440,0.2090288103,
441.0599976,0.1981846541,
441.9599915,0.217630893,
443.0299988,0.2240769565,
443.9299927,0.2221589684,
445,0.2078311592,
446.0599976,0.1812441498,
446.9599915,0.1770730913,
448.0299988,0.165347904,
448.9299927,0.1562717706,
450,0.2292279601,

Sample 41,
Sample 41
Collection Time: 1/08/2023 3:57:30 PM
Operator Name  :
Scan Software Version: 1.2(147)
Parameter List :
Instrument                        Cary Eclipse
Instrument Serial Number          test
Data mode                         Fluorescence
Scan mode                         Excitation
X Mode                            Wavelength (nm)
Start (nm)                        220.00
Stop (nm)                         450.00
Em. Wavelength (nm)               460.00
Ex. Slit (nm)                     5
Em. Slit (nm)                     5
Scan rate (nm/min)                120.00
Data interval (nm)                1.0000
Averaging Time (s)                0.5000
Excitation filter                 Auto
Emission filter                   Open
PMT voltage (V)                   Medium
Corrected spectra                 OFF
Method Log     :
Method Name    : Default
Date/Time stamp: 1/08/2023 12:56:44 PM
Method Modifications:
Overlayed Graphs Changed: 1/08/2023 2:04:18 PM, Old:OFF, New:ON
Excitation Wavelength Changed: 1/08/2023 2:04:18 PM, Old: 350.00, New: 327.00
Emission Wavelength Changed: 1/08/2023 2:04:18 PM, Old: 400.00, New: 337.00
Scan Control Changed: 1/08/2023 2:04:39 PM, Old:Medium, New:Slow
Ave. time (s): Changed: 1/08/2023 2:04:39 PM, Old:0.10000, New:0.50000
Scan Control Changed: 1/08/2023 2:08:46 PM, Old:Slow, New:Medium
Ave. time (s): Changed: 1/08/2023 2:08:46 PM, Old:0.50000, New:0.10000
Excitation Wavelength Changed: 1/08/2023 2:08:46 PM, Old: 327.00, New: 340.00
Emission Wavelength Changed: 1/08/2023 2:08:46 PM, Old: 337.00, New: 350.00
Excitation Wavelength Changed: 1/08/2023 2:09:58 PM, Old: 340.00, New: 310.00
Emission Wavelength Changed: 1/08/2023 2:09:58 PM, Old: 350.00, New: 320.00
Excitation Wavelength Changed: 1/08/2023 2:13:59 PM, Old: 310.00, New: 350.00
Emission Wavelength Changed: 1/08/2023 2:13:59 PM, Old: 320.00, New: 360.00
Scan Control Changed: 1/08/2023 2:14:44 PM, Old:Medium, New:Slow
Ave. time (s): Changed: 1/08/2023 2:14:44 PM, Old:0.10000, New:0.50000
Excitation Wavelength Changed: 1/08/2023 2:16:25 PM, Old: 350.00, New: 340.00
Emission Wavelength Changed: 1/08/2023 2:16:25 PM, Old: 360.00, New: 350.00
User Delta Stop Changed: 1/08/2023 2:24:01 PM, Old: 450.00, New: 475.00
User Delta Increment Changed: 1/08/2023 2:24:01 PM, Old:  10.00, New:   0.15
Excitation Wavelength Changed: 1/08/2023 2:24:01 PM, Old: 340.00, New: 475.00
Emission Wavelength Changed: 1/08/2023 2:24:01 PM, Old: 350.00, New: 485.00
Stop Wavelength Changed: 1/08/2023 2:24:01 PM, Old: 600.00, New: 750.00
Excitation Wavelength Changed: 1/08/2023 2:24:18 PM, Old: 475.00, New: 465.00
Emission Wavelength Changed: 1/08/2023 2:24:18 PM, Old: 485.00, New: 475.00
Scan mode: Changed: 1/08/2023 2:33:38 PM, Old:Emission, New:Excitation
Excitation Wavelength Changed: 1/08/2023 2:33:38 PM, Old: 465.00, New: 475.00
Emission Wavelength Changed: 1/08/2023 2:33:38 PM, Old: 475.00, New: 465.00
User Delta Stop Changed: 1/08/2023 2:34:03 PM, Old: 475.00, New: 562.00
Excitation Wavelength Changed: 1/08/2023 2:34:03 PM, Old: 475.00, New: 300.00
Emission Wavelength Changed: 1/08/2023 2:34:03 PM, Old: 465.00, New: 562.00
Stop Wavelength Changed: 1/08/2023 2:34:03 PM, Old: 750.00, New: 552.00
Scan mode: Changed: 1/08/2023 2:42:54 PM, Old:Excitation, New:Emission
Excitation Wavelength Changed: 1/08/2023 2:42:54 PM, Old: 300.00, New: 485.00
Emission Wavelength Changed: 1/08/2023 2:42:54 PM, Old: 562.00, New: 495.00
Stop Wavelength Changed: 1/08/2023 2:42:54 PM, Old: 552.00, New: 750.00
Scan mode: Changed: 1/08/2023 2:50:10 PM, Old:Emission, New:Excitation
User Delta Stop Changed: 1/08/2023 2:50:10 PM, Old: 562.00, New: 640.00
Excitation Wavelength Changed: 1/08/2023 2:50:10 PM, Old: 485.00, New: 300.00
Emission Wavelength Changed: 1/08/2023 2:50:10 PM, Old: 495.00, New: 640.00
Stop Wavelength Changed: 1/08/2023 2:50:10 PM, Old: 750.00, New: 630.00
Scan mode: Changed: 1/08/2023 2:57:13 PM, Old:Excitation, New:Emission
Scan Control Changed: 1/08/2023 2:57:13 PM, Old:Slow, New:Medium
Ave. time (s): Changed: 1/08/2023 2:57:13 PM, Old:0.50000, New:0.10000
Excitation Wavelength Changed: 1/08/2023 2:57:13 PM, Old: 300.00, New: 385.00
Emission Wavelength Changed: 1/08/2023 2:57:13 PM, Old: 640.00, New: 385.00
Stop Wavelength Changed: 1/08/2023 2:57:13 PM, Old: 630.00, New: 700.00
Scan Control Changed: 1/08/2023 2:59:25 PM, Old:Medium, New:Slow
Ave. time (s): Changed: 1/08/2023 2:59:25 PM, Old:0.10000, New:0.50000
Scan mode: Changed: 1/08/2023 3:08:16 PM, Old:Emission, New:Excitation
Excitation Wavelength Changed: 1/08/2023 3:08:16 PM, Old: 385.00, New: 300.00
Emission Wavelength Changed: 1/08/2023 3:08:16 PM, Old: 385.00, New: 530.00
Stop Wavelength Changed: 1/08/2023 3:08:16 PM, Old: 700.00, New: 520.00
Excitation Wavelength Changed: 1/08/2023 3:09:34 PM, Old: 300.00, New: 220.00
Scan mode: Changed: 1/08/2023 3:17:47 PM, Old:Excitation, New:Emission
Excitation Wavelength Changed: 1/08/2023 3:17:47 PM, Old: 220.00, New: 390.00
Emission Wavelength Changed: 1/08/2023 3:17:47 PM, Old: 530.00, New: 400.00
Stop Wavelength Changed: 1/08/2023 3:17:47 PM, Old: 520.00, New: 700.00
Scan Control Changed: 1/08/2023 3:17:54 PM, Old:Slow, New:Medium
Ave. time (s): Changed: 1/08/2023 3:17:54 PM, Old:0.50000, New:0.10000
Excitation Wavelength Changed: 1/08/2023 3:18:49 PM, Old: 390.00, New: 380.00
Emission Wavelength Changed: 1/08/2023 3:18:49 PM, Old: 400.00, New: 390.00
PMT Volts Changed: 1/08/2023 3:19:24 PM, Old:600, New:800
Scan Control Changed: 1/08/2023 3:19:24 PM, Old:Medium, New:Slow
Ave. time (s): Changed: 1/08/2023 3:19:24 PM, Old:0.10000, New:0.50000
Emission PMT (V): Changed: 1/08/2023 3:19:24 PM, Old: 600, New: 800
Excitation Wavelength Changed: 1/08/2023 3:19:24 PM, Old: 380.00, New: 390.00
Emission Wavelength Changed: 1/08/2023 3:19:24 PM, Old: 390.00, New: 400.00
Scan mode: Changed: 1/08/2023 3:29:03 PM, Old:Emission, New:Excitation
Excitation Wavelength Changed: 1/08/2023 3:29:03 PM, Old: 390.00, New: 220.00
Emission Wavelength Changed: 1/08/2023 3:29:03 PM, Old: 400.00, New: 544.00
Stop Wavelength Changed: 1/08/2023 3:29:03 PM, Old: 700.00, New: 534.00
Scan mode: Changed: 1/08/2023 3:38:21 PM, Old:Excitation, New:Emission
Excitation Wavelength Changed: 1/08/2023 3:38:21 PM, Old: 220.00, New: 290.00
Emission Wavelength Changed: 1/08/2023 3:38:21 PM, Old: 544.00, New: 300.00
Stop Wavelength Changed: 1/08/2023 3:38:21 PM, Old: 534.00, New: 700.00
Scan Control Changed: 1/08/2023 3:38:27 PM, Old:Slow, New:Medium
Ave. time (s): Changed: 1/08/2023 3:38:27 PM, Old:0.50000, New:0.10000
Excitation Wavelength Changed: 1/08/2023 3:46:16 PM, Old: 290.00, New: 360.00
Emission Wavelength Changed: 1/08/2023 3:46:16 PM, Old: 300.00, New: 370.00
Stop Wavelength Changed: 1/08/2023 3:46:16 PM, Old: 700.00, New: 590.00
PMT Volts Changed: 1/08/2023 3:47:06 PM, Old:800, New:600
Emission PMT (V): Changed: 1/08/2023 3:47:06 PM, Old: 800, New: 600
Scan Control Changed: 1/08/2023 3:47:47 PM, Old:Medium, New:Slow
Ave. time (s): Changed: 1/08/2023 3:47:47 PM, Old:0.10000, New:0.50000
Scan mode: Changed: 1/08/2023 3:54:34 PM, Old:Emission, New:Excitation
Excitation Wavelength Changed: 1/08/2023 3:54:34 PM, Old: 360.00, New: 220.00
Emission Wavelength Changed: 1/08/2023 3:54:34 PM, Old: 370.00, New: 460.00
Stop Wavelength Changed: 1/08/2023 3:54:34 PM, Old: 590.00, New: 450.00
End Method Modifications

