Sample 59,,
Wavelength (nm),Intensity (a.u.),
220,1.295523286,
220.9299927,0.5060728788,
222.0299988,0.2164736539,
222.9600067,-0.7306603193,
224.0599976,0.2824459672,
225,0.3143830001,
225.9299927,0.1943257004,
227.0299988,0.1483019441,
227.9600067,0.1237746328,
229.0599976,0.1561524123,
230,0.08890271932,
230.9299927,0.04673006386,
232.0299988,0.2311723083,
232.9600067,-0.1110864282,
234.0599976,0.2394205928,
235,0,
235.9299927,0.4381352961,
237.0299988,-0.02698108554,
237.9600067,0.3104403317,
239.0599976,0.01968969032,
240,0.1724583954,
240.9299927,0.1055982113,
242.0299988,0.1074315831,
242.9600067,0.1829112172,
244.0599976,0.0454871133,
245,0.0212524049,
245.9299927,-0.0100486353,
247.0299988,0.1304343492,
247.9600067,0.1032055691,
249.0599976,0.03314221278,
250,0.1621372253,
250.9299927,0.05338244513,
252.0299988,0.1625607759,
252.9600067,0.2699098289,
254.0599976,0.3581545353,
255,0.3362731636,
255.9299927,0.6645238996,
257.0299988,0.9696604013,
257.9599915,0.96936059,
259.0599976,1.130753994,
260,1.218299389,
261.0700073,1.281818151,
262,1.496230602,
263.0700073,1.908356667,
264,2.082123518,
265.0700073,2.555347204,
266,2.623042822,
267.0700073,2.802237988,
268,2.848724842,
269.0700073,3.253391266,
270,3.470016956,
270.9299927,3.578770399,
272.0299988,3.535830975,
272.9599915,3.776475668,
274.0599976,3.793292999,
275,3.622583628,
275.9299927,3.750918627,
277.0299988,3.71473527,
277.9599915,3.686607361,
279.0599976,3.705991507,
280,3.684767962,
280.9299927,3.489594698,
282.0299988,3.750509501,
282.9599915,3.626114368,
284.0599976,3.331143379,
285,3.447108507,
285.9299927,3.185480833,
287.0299988,3.449888468,
287.9599915,3.371850252,
289.0599976,3.115756273,
290,3.285331011,
291.0700073,3.212417126,
292,3.628469229,
293.0700073,4.895940304,
294,6.187675953,
295.0700073,7.988400936,
296,9.201438904,
297.0700073,9.591757774,
298,9.150863647,
299.0700073,7.749204636,
300,6.127725601,
300.9299927,4.545956612,
302.0299988,3.72350502,
302.9599915,3.231810808,
304.0599976,3.27445817,
305,3.409851313,
305.9299927,3.464566946,
307.0299988,3.312469244,
307.9599915,3.350016594,
309.0599976,3.361043692,
310,3.624487162,
311.0700073,3.547114372,
312,3.360328913,
313.0700073,3.577574492,
314,3.36976862,
315.0700073,3.328524113,
316,3.234442711,
317.0700073,3.341013908,
318,3.048293829,
319.0700073,3.099392176,
320,3.054385662,
321.0700073,3.018165588,
322,2.975333452,
323.0700073,2.647121429,
324,2.647148132,
325.0700073,2.46075511,
326,2.419457436,
327.0700073,2.311576128,
328,2.087583542,
329.0700073,2.187495232,
330,2.039880514,
330.9299927,1.883972168,
332.0299988,2.01886344,
332.9599915,1.82724762,
334.0599976,1.7283988,
335,1.709401727,
335.9299927,1.742858887,
337.0299988,1.372245431,
337.9599915,1.344021559,
339.0599976,1.257594585,
340,1.252750397,
341.0700073,1.157654166,
342,1.105689049,
343.0700073,1.132711291,
344,1.000765204,
345.0700073,0.9492505193,
346,0.9975134134,
347.0700073,0.8044332862,
348,0.8980288506,
349.0700073,0.7640541792,
350,0.7623047829,
351.0700073,0.5652511716,
352,0.5750137568,
353.0700073,0.6153622866,
354,0.6211978793,
355.0700073,0.5933976769,
356,0.3256654143,
357.0700073,0.4246359766,
358,0.4555054307,
359.0700073,0.4553734064,
360,0.4668810964,
361.0700073,0.3799392283,
362,0.4480638802,
363.0700073,0.390224427,
364,0.3025393784,
365.0700073,0.3574717045,
366,0.4180129766,
367.0700073,0.3811958432,
368,0.4564490616,
369.0700073,0.3608385324,
370,0.3610779941,
371.0599976,0.4545262456,
371.9599915,0.3952404559,
373.0299988,0.4435158074,
373.9299927,0.5838041306,
375,0.5381310582,
376.0599976,0.4763760567,
376.9599915,0.5010871291,
378.0299988,0.4643540084,
378.9299927,0.5231444836,
380,0.5883524418,
381.0700073,0.5503031611,
382,0.5917316079,
383.0700073,0.6238789558,
384,0.6300784945,
385.0700073,0.6341418624,
386,0.6164620519,
387.0700073,0.6726896167,
388,0.666584909,
389.0700073,0.6935468316,
390,0.7968906164,
391.0700073,0.7931202054,
392,0.7377964258,
393.0700073,0.8067627549,
394,0.7013192177,
395.0700073,0.8917910457,
396,0.8429957628,
397.0700073,0.8285546303,
398,0.9496099353,
399.0700073,0.9221553206,
400,0.9281007051,
401.0599976,1.02150619,
401.9599915,1.128094912,
403.0299988,1.049472451,
403.9299927,1.047178507,
405,1.064289331,
406.0599976,0.9812661409,
406.9599915,1.208061457,
408.0299988,1.122699618,
408.9299927,1.282115459,
410,1.320872903,
411.0700073,1.353507638,
412,1.358984113,
413.0700073,1.405637383,
414,1.544070363,
415.0700073,1.437814593,
416,1.553047419,
417.0700073,1.657238245,
418,1.676855326,
419.0700073,1.675776362,
420,1.733582139,
421.0599976,1.825827599,
421.9599915,1.861608505,
423.0299988,1.861201286,
423.9299927,1.967990279,
425,1.922927499,
426.0599976,1.971127987,
426.9599915,1.998961926,
428.0299988,2.155683517,
428.9299927,2.272444963,
430,2.22928071,
431.0599976,2.392415285,
431.9599915,2.453709602,
433.0299988,2.555571556,
433.9299927,2.609038353,
435,2.818053484,
436.0599976,2.746619225,
436.9599915,2.91930151,
438.0299988,3.048488617,
438.9299927,3.082516432,
440,3.00936389,
441.0599976,3.107233763,
441.9599915,3.224121332,
443.0299988,3.300900221,
443.9299927,3.426939964,
445,3.467324495,
446.0599976,3.507497072,
446.9599915,3.612089872,
448.0299988,3.61597538,
448.9299927,3.684747458,
450,3.941889763,
451.0599976,3.867270947,
451.9599915,3.954819918,
453.0299988,4.10247612,
453.9299927,4.107026577,
455,4.324069977,
456.0599976,4.382190228,
456.9599915,4.537075996,
458.0299988,4.587039471,
458.9299927,4.591901779,
460,4.639901161,
461.0599976,4.638068676,
461.9599915,4.548801422,
463.0299988,4.751336098,
463.9299927,4.799973011,
465,4.943767548,
466.0599976,4.992064953,
466.9599915,5.076141834,
468.0299988,5.13243103,
468.9299927,5.236223698,
470,5.288225651,
471.0400085,5.294034958,
471.9400024,5.360487461,
472.980011,5.358720303,
474.019989,5.475610733,
475.0700073,5.863823891,
475.9700012,5.629646778,
477.0100098,5.686561108,
478.0499878,5.938155651,
478.9500122,5.996313095,
480,6.167770386,
481.0599976,6.317826271,
481.9599915,6.243010521,
483.0299988,6.166388512,
483.9299927,6.003053188,
485,6.096969128,
486.0599976,5.977473259,
486.9599915,5.737965107,
488.0299988,5.815570831,
488.9299927,5.871781826,
490,5.889987469,
491.0400085,5.776878357,
491.9400024,5.647645473,
492.980011,5.587826729,
494.019989,5.640896797,
495.0700073,5.512923717,
495.9700012,5.634925365,
497.0100098,5.704450607,
498.0499878,5.587015629,
498.9500122,5.443594933,
500,5.528038979,
501.0599976,5.391079903,
501.9599915,5.673603058,
503.0299988,5.551572323,
503.9299927,5.46903944,
505,5.529242992,
506.0599976,5.382361412,
506.9599915,5.469865799,
508.0299988,5.453114033,
508.9299927,5.555230141,
510,5.097612858,
511.0400085,4.822463512,
511.9400024,4.650766373,
512.9799805,4.947811127,
514.0200195,4.825780392,
515.0700073,4.76134491,
515.9699707,4.579070091,
517.0100098,4.78442049,
518.0499878,4.586018562,
518.9500122,4.176124573,
520,4.177125454,
521.039978,4.190176964,
521.9400024,4.021409988,
522.9799805,3.874670744,
524.0200195,3.889797449,
525.0700073,3.936471462,
525.9699707,3.769721508,
527.0100098,3.55871892,
528.0499878,3.571217537,
528.9500122,3.276836872,
530,3.176359892,
531.0200195,3.022306442,
532.0499878,3.023627281,
532.9400024,2.788375854,
533.9699707,2.624837637,
535,2.629180908,
536.0200195,2.473188162,
537.0499878,2.312018633,
537.9400024,2.24344635,
538.9699707,2.187736034,
540,2.130788326,
541.039978,2.01879096,
541.9400024,1.865685344,
542.9799805,1.716493726,
544.0200195,1.750016212,
545.0700073,1.609315038,
545.9699707,1.476126432,
547.0100098,1.478165388,
548.0499878,1.336342931,
548.9500122,1.145870566,
550,1.081681132,
551.0200195,0.9614161253,
552.0499878,1.11229825,
552.9400024,1.075459003,
553.9699707,0.8030668497,
555,0.9534455538,
556.0200195,0.8902924657,
557.0499878,0.8143886924,
557.9400024,0.7764395475,
558.9699707,0.7418948412,
560,0.780498445,
561.039978,0.4416148365,
561.9400024,0.425531894,
562.9799805,0.4856726527,
564.0200195,0.5636786222,
565.0700073,0.3372681439,
565.9699707,0.5452201962,
567.0100098,0.515335381,
568.0499878,0.298869282,
568.9500122,0.08210450411,
570,0.2390438318,
571.0200195,0.2247804403,
572.0499878,0.198355183,
572.9400024,0.4029910862,
573.9699707,0.2887669504,
575,0.2050537914,
576.0200195,0.2415886819,
577.0499878,0.168747887,
577.9400024,0.1270624995,
578.9699707,0.05995084345,
580,0.2427934557,
581.0200195,0,
582.0499878,0.1135151088,
582.9400024,0.2601087689,
583.9699707,0.02418262698,
585,0.1452784538,
586.0200195,0.024025755,
587.0499878,-0.1156203002,
587.9400024,0.04574042559,

Sample 59,
Sample 59
Collection Time: 21/05/2023 5:39:36 PM
Operator Name  :
Scan Software Version: 1.2(147)
Parameter List :
Instrument                        Cary Eclipse
Instrument Serial Number          test
Data mode                         Fluorescence
Scan mode                         Excitation
X Mode                            Wavelength (nm)
Start (nm)                        220.00
Stop (nm)                         588.00
Em. Wavelength (nm)               598.00
Ex. Slit (nm)                     5
Em. Slit (nm)                     5
Scan rate (nm/min)                600.00
Data interval (nm)                1.0000
Averaging Time (s)                0.1000
Excitation filter                 Auto
Emission filter                   Open
PMT voltage (V)                   Medium
Corrected spectra                 OFF
Method Log     :
Method Name    : Default
Date/Time stamp: 21/05/2023 11:47:26 AM
Method Modifications:
Overlayed Graphs Changed: 21/05/2023 1:20:46 PM, Old:OFF, New:ON
Excitation Wavelength Changed: 21/05/2023 1:20:46 PM, Old: 350.00, New: 341.00
Emission Wavelength Changed: 21/05/2023 1:20:46 PM, Old: 400.00, New: 351.00
Stop Wavelength Changed: 21/05/2023 1:20:46 PM, Old: 600.00, New: 650.00
PMT Volts Changed: 21/05/2023 1:21:47 PM, Old:600, New:800
Emission PMT (V): Changed: 21/05/2023 1:21:47 PM, Old: 600, New: 800
Scan mode: Changed: 21/05/2023 1:22:38 PM, Old:Emission, New:Excitation
Excitation Wavelength Changed: 21/05/2023 1:22:38 PM, Old: 341.00, New: 220.00
Emission Wavelength Changed: 21/05/2023 1:22:38 PM, Old: 351.00, New: 381.00
Stop Wavelength Changed: 21/05/2023 1:22:38 PM, Old: 650.00, New: 371.00
Scan mode: Changed: 21/05/2023 1:24:38 PM, Old:Excitation, New:Emission
Excitation Wavelength Changed: 21/05/2023 1:24:38 PM, Old: 220.00, New: 381.00
Emission Wavelength Changed: 21/05/2023 1:24:38 PM, Old: 381.00, New: 220.00
Excitation Wavelength Changed: 21/05/2023 1:24:52 PM, Old: 381.00, New: 339.00
Emission Wavelength Changed: 21/05/2023 1:24:52 PM, Old: 220.00, New: 349.00
Stop Wavelength Changed: 21/05/2023 1:24:52 PM, Old: 371.00, New: 650.00
User Delta Stop Changed: 21/05/2023 1:31:08 PM, Old: 450.00, New: 553.00
User Delta Increment Changed: 21/05/2023 1:31:08 PM, Old:  10.00, New:   0.15
Excitation Wavelength Changed: 21/05/2023 1:31:08 PM, Old: 339.00, New: 553.00
Emission Wavelength Changed: 21/05/2023 1:31:08 PM, Old: 349.00, New: 563.00
Stop Wavelength Changed: 21/05/2023 1:31:08 PM, Old: 650.00, New: 850.00
PMT Volts Changed: 21/05/2023 1:31:49 PM, Old:800, New:600
Emission PMT (V): Changed: 21/05/2023 1:31:49 PM, Old: 800, New: 600
Scan mode: Changed: 21/05/2023 1:33:46 PM, Old:Emission, New:Excitation
User Delta Stop Changed: 21/05/2023 1:33:46 PM, Old: 553.00, New: 630.00
Excitation Wavelength Changed: 21/05/2023 1:33:46 PM, Old: 553.00, New: 220.00
Emission Wavelength Changed: 21/05/2023 1:33:46 PM, Old: 563.00, New: 630.00
Stop Wavelength Changed: 21/05/2023 1:33:46 PM, Old: 850.00, New: 620.00
Scan mode: Changed: 21/05/2023 1:43:42 PM, Old:Excitation, New:Emission
Excitation Wavelength Changed: 21/05/2023 1:43:42 PM, Old: 220.00, New: 352.00
Emission Wavelength Changed: 21/05/2023 1:43:42 PM, Old: 630.00, New: 362.00
Stop Wavelength Changed: 21/05/2023 1:43:42 PM, Old: 620.00, New: 650.00
Scan mode: Changed: 21/05/2023 1:45:14 PM, Old:Emission, New:Excitation
Excitation Wavelength Changed: 21/05/2023 1:45:14 PM, Old: 352.00, New: 220.00
Emission Wavelength Changed: 21/05/2023 1:45:14 PM, Old: 362.00, New: 377.00
Stop Wavelength Changed: 21/05/2023 1:45:14 PM, Old: 650.00, New: 367.00
Scan mode: Changed: 21/05/2023 1:48:20 PM, Old:Excitation, New:Emission
Excitation Wavelength Changed: 21/05/2023 1:48:20 PM, Old: 220.00, New: 350.00
Emission Wavelength Changed: 21/05/2023 1:48:20 PM, Old: 377.00, New: 360.00
Stop Wavelength Changed: 21/05/2023 1:48:20 PM, Old: 367.00, New: 550.00
Excitation Wavelength Changed: 21/05/2023 1:48:48 PM, Old: 350.00, New: 340.00
Emission Wavelength Changed: 21/05/2023 1:48:48 PM, Old: 360.00, New: 350.00
PMT Volts Changed: 21/05/2023 1:49:10 PM, Old:600, New:800
Emission PMT (V): Changed: 21/05/2023 1:49:10 PM, Old: 600, New: 800
Excitation Wavelength Changed: 21/05/2023 2:04:44 PM, Old: 340.00, New: 470.00
Emission Wavelength Changed: 21/05/2023 2:04:44 PM, Old: 350.00, New: 480.00
Stop Wavelength Changed: 21/05/2023 2:04:44 PM, Old: 550.00, New: 700.00
PMT Volts Changed: 21/05/2023 2:05:04 PM, Old:800, New:600
Emission PMT (V): Changed: 21/05/2023 2:05:04 PM, Old: 800, New: 600
Scan mode: Changed: 21/05/2023 2:07:15 PM, Old:Emission, New:Excitation
Excitation Wavelength Changed: 21/05/2023 2:07:15 PM, Old: 470.00, New: 220.00
Emission Wavelength Changed: 21/05/2023 2:07:15 PM, Old: 480.00, New: 540.00
Stop Wavelength Changed: 21/05/2023 2:07:15 PM, Old: 700.00, New: 530.00
Scan mode: Changed: 21/05/2023 2:14:20 PM, Old:Excitation, New:Emission
Excitation Wavelength Changed: 21/05/2023 2:14:20 PM, Old: 220.00, New: 366.00
Emission Wavelength Changed: 21/05/2023 2:14:20 PM, Old: 540.00, New: 376.00
Stop Wavelength Changed: 21/05/2023 2:14:20 PM, Old: 530.00, New: 550.00
Stop Wavelength Changed: 21/05/2023 2:15:00 PM, Old: 550.00, New: 650.00
Scan mode: Changed: 21/05/2023 2:17:05 PM, Old:Emission, New:Excitation
Excitation Wavelength Changed: 21/05/2023 2:17:05 PM, Old: 366.00, New: 220.00
Emission Wavelength Changed: 21/05/2023 2:17:05 PM, Old: 376.00, New: 445.00
Stop Wavelength Changed: 21/05/2023 2:17:05 PM, Old: 650.00, New: 435.00
Scan mode: Changed: 21/05/2023 3:04:18 PM, Old:Excitation, New:Emission
Excitation Wavelength Changed: 21/05/2023 3:04:18 PM, Old: 220.00, New: 335.00
Emission Wavelength Changed: 21/05/2023 3:04:18 PM, Old: 445.00, New: 345.00
Stop Wavelength Changed: 21/05/2023 3:04:18 PM, Old: 435.00, New: 650.00
Stop Wavelength Changed: 21/05/2023 3:05:08 PM, Old: 650.00, New: 700.00
Scan mode: Changed: 21/05/2023 3:07:25 PM, Old:Emission, New:Excitation
Excitation Wavelength Changed: 21/05/2023 3:07:25 PM, Old: 335.00, New: 220.00
Emission Wavelength Changed: 21/05/2023 3:07:25 PM, Old: 345.00, New: 508.00
Stop Wavelength Changed: 21/05/2023 3:07:25 PM, Old: 700.00, New: 498.00
Scan mode: Changed: 21/05/2023 3:13:25 PM, Old:Excitation, New:Emission
Excitation Wavelength Changed: 21/05/2023 3:13:25 PM, Old: 220.00, New: 427.00
Emission Wavelength Changed: 21/05/2023 3:13:25 PM, Old: 508.00, New: 437.00
Stop Wavelength Changed: 21/05/2023 3:13:25 PM, Old: 498.00, New: 650.00
Stop Wavelength Changed: 21/05/2023 3:13:58 PM, Old: 650.00, New: 750.00
Scan mode: Changed: 21/05/2023 3:16:50 PM, Old:Emission, New:Excitation
Excitation Wavelength Changed: 21/05/2023 3:16:50 PM, Old: 427.00, New: 220.00
Emission Wavelength Changed: 21/05/2023 3:16:50 PM, Old: 437.00, New: 528.00
Stop Wavelength Changed: 21/05/2023 3:16:50 PM, Old: 750.00, New: 518.00
Scan mode: Changed: 21/05/2023 4:47:47 PM, Old:Excitation, New:Emission
User Delta Stop Changed: 21/05/2023 4:47:47 PM, Old: 630.00, New: 696.00
Excitation Wavelength Changed: 21/05/2023 4:47:47 PM, Old: 220.00, New: 696.00
Emission Wavelength Changed: 21/05/2023 4:47:47 PM, Old: 528.00, New: 706.00
Stop Wavelength Changed: 21/05/2023 4:47:47 PM, Old: 518.00, New: 850.00
Excitation Wavelength Changed: 21/05/2023 4:48:12 PM, Old: 696.00, New: 587.00
Emission Wavelength Changed: 21/05/2023 4:48:12 PM, Old: 706.00, New: 597.00
Scan mode: Changed: 21/05/2023 4:49:20 PM, Old:Emission, New:Excitation
User Delta Stop Changed: 21/05/2023 4:49:20 PM, Old: 696.00, New: 750.00
Excitation Wavelength Changed: 21/05/2023 4:49:20 PM, Old: 587.00, New: 400.00
Emission Wavelength Changed: 21/05/2023 4:49:20 PM, Old: 597.00, New: 750.00
Stop Wavelength Changed: 21/05/2023 4:49:20 PM, Old: 850.00, New: 740.00
User Delta Stop Changed: 21/05/2023 4:50:16 PM, Old: 750.00, New: 760.00
Emission Wavelength Changed: 21/05/2023 4:50:16 PM, Old: 750.00, New: 760.00
Stop Wavelength Changed: 21/05/2023 4:50:16 PM, Old: 740.00, New: 750.00
Scan mode: Changed: 21/05/2023 4:54:28 PM, Old:Excitation, New:Emission
Excitation Wavelength Changed: 21/05/2023 4:54:28 PM, Old: 400.00, New: 638.00
Emission Wavelength Changed: 21/05/2023 4:54:28 PM, Old: 760.00, New: 648.00
Stop Wavelength Changed: 21/05/2023 4:54:28 PM, Old: 750.00, New: 850.00
Excitation Wavelength Changed: 21/05/2023 5:08:46 PM, Old: 638.00, New: 569.00
Emission Wavelength Changed: 21/05/2023 5:08:46 PM, Old: 648.00, New: 576.00
Stop Wavelength Changed: 21/05/2023 5:08:46 PM, Old: 850.00, New: 750.00
Excitation Wavelength Changed: 21/05/2023 5:09:36 PM, Old: 569.00, New: 512.00
Emission Wavelength Changed: 21/05/2023 5:09:36 PM, Old: 576.00, New: 522.00
Scan mode: Changed: 21/05/2023 5:11:28 PM, Old:Emission, New:Excitation
Excitation Wavelength Changed: 21/05/2023 5:11:28 PM, Old: 512.00, New: 220.00
Emission Wavelength Changed: 21/05/2023 5:11:28 PM, Old: 522.00, New: 604.00
Stop Wavelength Changed: 21/05/2023 5:11:28 PM, Old: 750.00, New: 594.00
Emission Wavelength Changed: 21/05/2023 5:13:07 PM, Old: 604.00, New: 622.00
Stop Wavelength Changed: 21/05/2023 5:13:07 PM, Old: 594.00, New: 612.00
Scan mode: Changed: 21/05/2023 5:35:55 PM, Old:Excitation, New:Emission
Excitation Wavelength Changed: 21/05/2023 5:35:55 PM, Old: 220.00, New: 484.00
Emission Wavelength Changed: 21/05/2023 5:35:55 PM, Old: 622.00, New: 494.00
Stop Wavelength Changed: 21/05/2023 5:35:55 PM, Old: 612.00, New: 700.00
Stop Wavelength Changed: 21/05/2023 5:37:00 PM, Old: 700.00, New: 800.00
Scan mode: Changed: 21/05/2023 5:39:32 PM, Old:Emission, New:Excitation
Excitation Wavelength Changed: 21/05/2023 5:39:32 PM, Old: 484.00, New: 220.00
Emission Wavelength Changed: 21/05/2023 5:39:32 PM, Old: 494.00, New: 598.00
Stop Wavelength Changed: 21/05/2023 5:39:32 PM, Old: 800.00, New: 588.00
End Method Modifications

