Sample 2,,
Wavelength (nm),Intensity (a.u.),
410,0.5175662041,
411.0599976,0.3406156898,
411.9599915,0.2900153697,
413.0299988,0.2844634354,
413.9299927,0.3456619382,
415,0.2814760804,
416.0599976,0.3494109809,
416.9599915,0.3721675873,
418.0299988,0.3844089508,
418.9299927,0.3276229799,
420,0.4114642441,
421.0599976,0.4318441749,
421.9599915,0.5389764905,
423.0299988,0.5211419463,
423.9299927,0.6950143576,
425,0.7407138348,
426.0599976,0.8288377523,
426.9599915,0.8992934227,
428.0299988,1.089111924,
428.9299927,1.315057397,
430,1.382159948,
431.0400085,1.664828897,
431.9400024,1.90389967,
432.980011,2.312286377,
434.019989,2.533813477,
435.0700073,2.889296532,
435.9700012,3.12275815,
437.0100098,3.403982878,
438.0499878,3.621067047,
438.9500122,3.740065575,
440,3.919348955,
441.0599976,4.233085632,
441.9599915,4.547254562,
443.0299988,4.982924938,
443.9299927,5.490719795,
445,6.381565571,
446.0599976,7.702628613,
446.9599915,8.830084801,
448.0299988,10.88412189,
448.9299927,13.52946281,
450,17.22762299,
451.0599976,21.80410576,
451.9599915,26.22245407,
453.0299988,34.13004303,
453.9299927,42.20661545,
455,55.27928543,
456.0599976,67.97393799,
456.9599915,82.43296814,
458.0299988,105.3419113,
458.9299927,129.6099396,
460,168.1992798,
461.0400085,203.3395844,
461.9400024,239.137146,
462.980011,291.7835693,
464.019989,351.3670654,
465.0700073,415.8775635,
465.9700012,461.9858093,
467.0100098,512.0146484,
468.0499878,550.961853,
468.9500122,566.170105,
470,573.2315063,
471.0400085,568.9966431,
471.9400024,551.6277466,
472.980011,523.0344238,
474.019989,494.1271973,
475.0700073,462.9128723,
475.9700012,434.2747192,
477.0100098,401.2157288,
478.0499878,370.1296692,
478.9500122,341.9394531,
480,314.8311157,
481.0400085,288.5842896,
481.9400024,271.2013855,
482.980011,247.4450684,
484.019989,226.5901184,
485.0700073,214.0592804,
485.9700012,203.7727661,
487.0100098,197.0871735,
488.0499878,192.8553009,
488.9500122,194.4444427,
490,197.1352997,
491.0400085,205.1526337,
491.9400024,212.822403,
492.980011,222.8235321,
494.019989,234.2832489,
495.0700073,248.5787354,
495.9700012,259.9685974,
497.0100098,267.4092102,
498.0499878,277.1717834,
498.9500122,280.6729431,
500,280.6417542,
501.0400085,279.9533386,
501.9400024,276.8665161,
502.980011,270.6850281,
504.019989,261.5318298,
505.0700073,252.0130615,
505.9700012,239.6947479,
507.0100098,227.6631012,
508.0499878,211.2588501,
508.9500122,200.9680939,
510,188.7516022,
511.0400085,175.4298706,
511.9400024,164.7756348,
512.9799805,153.4308167,
514.0200195,143.5796509,
515.0700073,134.2269897,
515.9699707,128.2858887,
517.0100098,120.7700195,
518.0499878,116.0672913,
518.9500122,111.6670532,
520,106.9602966,
521.0200195,103.4039383,
522.0499878,100.4844437,
522.9400024,97.76006317,
523.9699707,95.49780273,
525,93.04069519,
526.0200195,91.95426941,
527.0499878,89.23292542,
527.9400024,88.52974701,
528.9699707,86.32920837,
530,85.39464569,
531.039978,84.1337738,
531.9400024,82.5242691,
532.9799805,82.15667725,
534.0200195,79.53985596,
535.0700073,78.67250061,
535.9699707,76.30170441,
537.0100098,75.29872894,
538.0499878,73.16456604,
538.9500122,69.54471588,
540,66.76921844,
541.0200195,63.75008774,
542.0499878,61.5028038,
542.9400024,58.60460281,
543.9699707,56.03171921,
545,53.26271439,
546.0200195,49.61227036,
547.0499878,47.60438919,
547.9400024,44.80228806,
548.9699707,42.40971756,
550,40.1725769,
551.0200195,38.59560776,
552.0499878,36.26511765,
552.9400024,34.49474335,
553.9699707,33.3828125,
555,31.67216873,
556.0200195,30.78707695,
557.0499878,29.28831291,
557.9400024,28.78693771,
558.9699707,27.91711807,
560,26.75854683,
561.0200195,25.29552841,
562.0499878,25.47515297,
562.9400024,24.33444405,
563.9699707,23.55138016,
565,22.5253849,
566.0200195,21.62456894,
567.0499878,21.29087067,
567.9400024,20.47149467,
568.9699707,19.4998436,
570,19.07525635,
571.0100098,18.39695168,
572.0200195,17.70419884,
573.039978,17.16127396,
574.0499878,16.26437187,
575.0700073,15.82110119,
575.9400024,15.26004791,
576.9500122,14.87021446,
577.9699707,14.31055164,
578.9799805,13.41365147,
580,12.84134769,
581.0200195,12.52849865,
582.0499878,11.5416832,
582.9400024,11.40194893,
583.9699707,11.06661606,
585,10.22240543,
586.0200195,9.780461311,
587.0499878,9.44192028,
587.9400024,9.149222374,
588.9699707,8.728471756,
590,8.542429924,
591.0100098,7.800845146,
592.0200195,7.643125534,
593.039978,7.251953125,
594.0499878,6.940301895,
595.0700073,6.504496574,
595.9400024,6.281363487,
596.9500122,5.876712322,
597.9699707,5.767879963,
598.9799805,5.81292963,
600,5.28696537,
601.0100098,4.891918182,
602.0200195,4.774265289,
603.039978,4.727374077,
604.0499878,4.610597134,
605.0700073,4.2101717,
605.9400024,4.223501205,
606.9500122,4.02786684,
607.9699707,3.775033712,
608.9799805,3.616930962,
610,3.638824224,
611.0100098,3.441160917,
612.0200195,3.400532484,
613.039978,3.13798666,
614.0499878,3.07490015,
615.0700073,2.977359056,
615.9400024,2.760540247,
616.9500122,2.705582142,
617.9699707,2.60132885,
618.9799805,2.410236597,
620,2.429172516,
621.0100098,2.298687696,
622.0200195,2.323736191,
623.039978,2.142199993,
624.0499878,2.13080883,
625.0700073,1.936292529,
625.9400024,1.891159654,
626.9500122,1.85392499,
627.9699707,1.712136507,
628.9799805,1.642255068,
630,1.583398104,
631,1.411070943,
632,1.57800293,
633,1.364963174,
634,1.441097856,
635,1.296465516,
636,1.265760541,
637,1.183253765,
638,1.101066709,
639,1.081149459,
640,1.005715966,
641.0100098,0.9983872175,
642.0200195,0.9226651788,
643.039978,0.9314015508,
644.0499878,0.8707854748,
645.0700073,0.8857087493,
645.9400024,0.8392634392,
646.9500122,0.8034148216,
647.9699707,0.7225433588,
648.9799805,0.7216895819,
650,0.7903074026,
651,0.6821141839,
652,0.6555066109,
653,0.6761277318,
654,0.6149181724,
655,0.5962309837,
656,0.548766315,
657,0.5158951283,
658,0.505675137,
659,0.5700371861,
660,0.4361681938,
661,0.4416434765,
662,0.4937505126,
663,0.423346132,
664,0.3618977368,
665,0.4095322192,
666,0.3259475529,
667,0.3211953938,
668,0.3355165124,
669,0.377055496,
670,0.4050590396,
670.9799805,0.3198420107,
671.9699707,0.2787475884,
672.9500122,0.3302214742,
673.9400024,0.2945529222,
675.0700073,0.2201454341,
676.0499878,0.2927337885,
677.039978,0.266320914,
678.0200195,0.1960841268,
679.0100098,0.2328009456,
680,0.2290294915,
681,0.2018192559,
682,0.2550667226,
683,0.2555714548,
684,0.2052995563,
685,0.1642211974,
686,0.2068458796,
687,0.1421514601,
688,0.1056338027,
689,0.09962994605,
690,0.173024103,
690.9799805,0.1353237778,
691.9699707,0.1329349875,
692.9500122,0.1283138841,
693.9400024,0.166833505,
695.0700073,0.1075353622,
696.0499878,0.1053452119,
697.039978,0.1642153412,
698.0200195,0.0661541,
699.0100098,0.1638351679,
700,0.151200965,

Sample 2,
Sample 2
Collection Time: 16/06/2023 9:39:47 AM
Operator Name  :
Scan Software Version: 1.2(147)
Parameter List :
Instrument                        Cary Eclipse
Instrument Serial Number          test
Data mode                         Fluorescence
Scan mode                         Emission
X Mode                            Wavelength (nm)
Start (nm)                        410.00
Stop (nm)                         700.00
Ex. Wavelength (nm)               400.00
Ex. Slit (nm)                     5
Em. Slit (nm)                     5
Scan rate (nm/min)                600.00
Data interval (nm)                1.0000
Averaging Time (s)                0.1000
Excitation filter                 Auto
Emission filter                   Open
PMT voltage (V)                   Medium
Corrected spectra                 OFF
Method Log     :
Method Name    : Default
Date/Time stamp: 16/06/2023 9:32:18 AM
Method Modifications:
Overlayed Graphs Changed: 16/06/2023 9:39:02 AM, Old:OFF, New:ON
User Delta Stop Changed: 16/06/2023 9:39:03 AM, Old: 450.00, New: 458.00
User Delta Increment Changed: 16/06/2023 9:39:03 AM, Old:  10.00, New:   0.15
Excitation Wavelength Changed: 16/06/2023 9:39:03 AM, Old: 350.00, New: 458.00
Emission Wavelength Changed: 16/06/2023 9:39:03 AM, Old: 400.00, New: 468.00
Stop Wavelength Changed: 16/06/2023 9:39:03 AM, Old: 600.00, New: 700.00
Excitation Wavelength Changed: 16/06/2023 9:39:45 AM, Old: 458.00, New: 400.00
Emission Wavelength Changed: 16/06/2023 9:39:45 AM, Old: 468.00, New: 410.00
End Method Modifications

