Sample 2,,
Wavelength (nm),Intensity (a.u.),
430,0.7205911279,
431.0400085,0.7045641541,
431.9400024,0.7328460813,
432.980011,0.8224654198,
434.019989,0.8776857853,
435.0700073,0.8967635632,
435.9700012,0.956857264,
437.0100098,0.9774013758,
438.0499878,0.9926347733,
438.9500122,1.019319057,
440,1.052334905,
441.0599976,1.114204645,
441.9599915,1.195701838,
443.0299988,1.227797508,
443.9299927,1.254983783,
445,1.327961922,
446.0599976,1.418548584,
446.9599915,1.46108377,
448.0299988,1.614396811,
448.9299927,1.646067262,
450,1.704130888,
451.0599976,1.790169954,
451.9599915,1.87527895,
453.0299988,1.90803206,
453.9299927,1.997272491,
455,2.049206257,
456.0599976,2.12153244,
456.9599915,2.198781013,
458.0299988,2.346946478,
458.9299927,2.380359173,
460,2.502369165,
461.0400085,2.546859264,
461.9400024,2.606126785,
462.980011,2.699582577,
464.019989,2.773141146,
465.0700073,2.864210129,
465.9700012,2.887690306,
467.0100098,2.9457829,
468.0499878,3.005659103,
468.9500122,3.042787075,
470,3.165294409,
471.0400085,3.164905071,
471.9400024,3.282361031,
472.980011,3.31831193,
474.019989,3.324881077,
475.0700073,3.451294899,
475.9700012,3.47056675,
477.0100098,3.616167784,
478.0499878,3.725684643,
478.9500122,3.829969645,
480,3.817079544,
481.0400085,3.855086327,
481.9400024,3.95232296,
482.980011,3.965952396,
484.019989,3.95102334,
485.0700073,3.87329936,
485.9700012,3.774408579,
487.0100098,3.767492771,
488.0499878,3.68010211,
488.9500122,3.670054436,
490,3.682672262,
491.0400085,3.701855898,
491.9400024,3.679919481,
492.980011,3.668173552,
494.019989,3.713417768,
495.0700073,3.690559149,
495.9700012,3.669951677,
497.0100098,3.637526751,
498.0499878,3.660095453,
498.9500122,3.603566408,
500,3.621849298,
501.0400085,3.585567236,
501.9400024,3.655025005,
502.980011,3.592478752,
504.019989,3.537004232,
505.0700073,3.568127394,
505.9700012,3.53331542,
507.0100098,3.502179384,
508.0499878,3.462487221,
508.9500122,3.440312147,
510,3.403902531,
511.0400085,3.412257195,
511.9400024,3.376807451,
512.9799805,3.358587503,
514.0200195,3.305009842,
515.0700073,3.309584379,
515.9699707,3.253536701,
517.0100098,3.247266054,
518.0499878,3.201010227,
518.9500122,3.161015034,
520,3.139710903,
521.0200195,3.093453169,
522.0499878,3.089990139,
522.9400024,3.068205595,
523.9699707,3.012499332,
525,2.97519803,
526.0200195,2.925503254,
527.0499878,2.911031961,
527.9400024,2.897413969,
528.9699707,2.867548466,
530,2.84798336,
531.039978,2.791625023,
531.9400024,2.736970425,
532.9799805,2.726783037,
534.0200195,2.665076971,
535.0700073,2.648469448,
535.9699707,2.664687157,
537.0100098,2.599889994,
538.0499878,2.57166338,
538.9500122,2.517084122,
540,2.516999483,
541.0200195,2.490802288,
542.0499878,2.438218355,
542.9400024,2.353806734,
543.9699707,2.360152483,
545,2.338593245,
546.0200195,2.289610624,
547.0499878,2.231332302,
547.9400024,2.20132947,
548.9699707,2.19865799,
550,2.127084732,
551.0200195,2.123385668,
552.0499878,2.056001902,
552.9400024,2.103647232,
553.9699707,1.992280364,
555,1.992342472,
556.0200195,1.95590663,
557.0499878,1.924936295,
557.9400024,1.89670825,
558.9699707,1.86549592,
560,1.811841011,
561.0200195,1.856065392,
562.0499878,1.780982852,
562.9400024,1.771052122,
563.9699707,1.722644687,
565,1.713045597,
566.0200195,1.694562554,
567.0499878,1.648157001,
567.9400024,1.610440254,
568.9699707,1.589866757,
570,1.582009673,
571.0100098,1.560079336,
572.0200195,1.514308333,
573.039978,1.48354876,
574.0499878,1.460811257,
575.0700073,1.402318239,
575.9400024,1.405346036,
576.9500122,1.35500598,
577.9699707,1.351557374,
578.9799805,1.314511299,
580,1.337871909,
581.0200195,1.318410039,
582.0499878,1.244578481,
582.9400024,1.206809163,
583.9699707,1.211675167,
585,1.189188361,
586.0200195,1.169968009,
587.0499878,1.1242522,
587.9400024,1.11928153,
588.9699707,1.097112417,
590,1.08996284,
591.0100098,1.063077331,
592.0200195,1.064918995,
593.039978,1.024116158,
594.0499878,0.9777912498,
595.0700073,0.9788116217,
595.9400024,0.9581453204,
596.9500122,0.9332507849,
597.9699707,0.9106413126,
598.9799805,0.9060953856,
600,0.8941757083,
601.0100098,0.8677772284,
602.0200195,0.8569971323,
603.039978,0.8298822045,
604.0499878,0.7998624444,
605.0700073,0.7730900645,
605.9400024,0.7894647121,
606.9500122,0.7830036283,
607.9699707,0.7510411143,
608.9799805,0.7169965506,
610,0.7223045826,
611.0100098,0.7101812959,
612.0200195,0.7023199797,
613.039978,0.6442447901,
614.0499878,0.6322253346,
615.0700073,0.6406072378,
615.9400024,0.6321021318,
616.9500122,0.6059509516,
617.9699707,0.5799053311,
618.9799805,0.5846108198,
620,0.5786300898,
621.0100098,0.5644860864,
622.0200195,0.5392099023,
623.039978,0.5423913598,
624.0499878,0.5376929045,
625.0700073,0.5162191987,
625.9400024,0.5055508018,
626.9500122,0.4943731427,
627.9699707,0.4906061888,
628.9799805,0.443734169,
630,0.461774379,
631,0.4443881214,
632,0.4344849586,
633,0.4171810746,
634,0.4126324654,
635,0.3950360119,
636,0.4000760317,
637,0.3805219531,
638,0.3721963465,
639,0.3565991521,
640,0.343899101,
641.0100098,0.3342999816,
642.0200195,0.3468273878,
643.039978,0.3401238024,
644.0499878,0.3073455691,
645.0700073,0.3048275709,
645.9400024,0.3120394945,
646.9500122,0.305778265,
647.9699707,0.2851526737,
648.9799805,0.2818473279,
650,0.2747994661,
651,0.2761639953,
652,0.2493448853,
653,0.2552376688,
654,0.2495442778,
655,0.2312914431,
656,0.2124664485,
657,0.2282152474,
658,0.2351907343,
659,0.2279272527,
660,0.2132154107,
661,0.2024726868,
662,0.2095462978,
663,0.1889669746,
664,0.1780219078,
665,0.1877335161,
666,0.1709777713,
667,0.1744391918,
668,0.1617762893,
669,0.147129342,
670,0.1705551296,
670.9799805,0.1489256173,
671.9699707,0.1620522588,
672.9500122,0.1626413465,
673.9400024,0.1374415904,
675.0700073,0.1523617059,
676.0499878,0.1462521851,
677.039978,0.1276506782,
678.0200195,0.1096382663,
679.0100098,0.1177216023,
680,0.1220764369,
681,0.1229923069,
682,0.1207390279,
683,0.1089990884,
684,0.09663570672,
685,0.1149810031,
686,0.09947633743,
687,0.1155231148,
688,0.1057774574,
689,0.08567783237,
690,0.08257754147,
690.9799805,0.09440255165,
691.9699707,0.08230575919,
692.9500122,0.07028533518,
693.9400024,0.07739317417,
695.0700073,0.07811279595,
696.0499878,0.0886137411,
697.039978,0.0824470818,
698.0200195,0.06773241609,
699.0100098,0.06077667326,
700,0.0731638968,
700.9799805,0.07198982686,
701.9699707,0.08375758678,
702.9500122,0.06337524205,
703.9400024,0.08003305644,
705.0700073,0.06804227084,
706.0499878,0.06571549177,
707.039978,0.05127526447,
708.0200195,0.05322910473,
709.0100098,0.05957716703,
710,0.06937977672,
710.9799805,0.05552918464,
711.9699707,0.05682298541,
712.9500122,0.05098132044,
713.9400024,0.05986663327,
715.0700073,0.05214200914,
716.0499878,0.05459843203,
717.039978,0.04893315583,
718.0200195,0.05536558107,
719.0100098,0.05654958636,
720,0.0421487987,
720.9699707,0.04116434976,
721.9400024,0.04331768304,
723.0499878,0.03720143437,
724.0200195,0.05027312785,
725,0.04873769358,
725.9699707,0.03327947482,
726.9400024,0.04578248039,
728.0499878,0.03284978867,
729.0200195,0.04942224175,
730,0.03574622795,
730.9799805,0.03669485822,
731.9699707,0.03107335977,
732.9500122,0.04726935178,
733.9400024,0.03917878494,
735.0700073,0.0260963738,
736.0499878,0.02794775553,
737.039978,0.03200282529,
738.0200195,0.026982693,
739.0100098,0.03084769472,
740,0.02678197995,
740.9500122,0.0358729288,
742.0499878,0.03163760155,
743.0100098,0.03609010577,
743.9699707,0.01776828803,
745.0599976,0.03630915284,
746.0200195,0.02323345467,
746.9799805,0.01454295684,
747.9400024,0.006799774244,
749.039978,0.02058345824,
750,0.006822762545,

Sample 2,
Sample 2
Collection Time: 10/08/2023 2:41:41 PM
Operator Name  :
Scan Software Version: 1.2(147)
Parameter List :
Instrument                        Cary Eclipse
Instrument Serial Number          test
Data mode                         Fluorescence
Scan mode                         Emission
X Mode                            Wavelength (nm)
Start (nm)                        430.00
Stop (nm)                         750.00
Ex. Wavelength (nm)               420.00
Ex. Slit (nm)                     5
Em. Slit (nm)                     5
Scan rate (nm/min)                120.00
Data interval (nm)                1.0000
Averaging Time (s)                0.5000
Excitation filter                 Auto
Emission filter                   Open
PMT voltage (V)                   Medium
Corrected spectra                 OFF
Method Log     :
Method Name    : Default
Date/Time stamp: 10/08/2023 1:46:39 PM
Method Modifications:
Overlayed Graphs Changed: 10/08/2023 1:59:01 PM, Old:OFF, New:ON
Scan Control Changed: 10/08/2023 1:59:01 PM, Old:Medium, New:Slow
Ave. time (s): Changed: 10/08/2023 1:59:01 PM, Old:0.10000, New:0.50000
Excitation Wavelength Changed: 10/08/2023 2:37:48 PM, Old: 350.00, New: 420.00
Emission Wavelength Changed: 10/08/2023 2:37:48 PM, Old: 400.00, New: 430.00
Stop Wavelength Changed: 10/08/2023 2:37:48 PM, Old: 600.00, New: 750.00
End Method Modifications

