Sample 5,,
Wavelength (nm),Intensity (a.u.),
220,-0.5998799801,
220.9299927,0.1376273036,
222.0299988,0.5606638193,
222.9600067,-0.1880229414,
224.0599976,0.226568982,
225,0.427008301,
225.9299927,0.2884932458,
227.0299988,0.5254535675,
227.9600067,0.05163022503,
229.0599976,0.2793751061,
230,0.3458053768,
230.9299927,0.2398024052,
232.0299988,0.1574513912,
232.9600067,0.08618213236,
234.0599976,-0.08971560001,
235,0.08862629533,
235.9299927,0.2650098801,
237.0299988,0.2408542335,
237.9600067,0.2630823553,
239.0599976,0.2898130715,
240,0.0934754163,
240.9299927,0.2198734134,
242.0299988,0.02799630351,
242.9600067,0.1272620857,
244.0599976,0.2113345861,
245,0.1207716167,
245.9299927,0.09306750447,
247.0299988,0.1105527654,
247.9600067,0.1763156354,
249.0599976,0.1005890071,
250,0.01222374383,
250.9299927,-0.01356888935,
252.0299988,0.07601094991,
252.9600067,0.1790743619,
254.0599976,0,
255,0.04818967357,
255.9299927,0.09825526923,
257.0299988,0.1258063018,
257.9599915,0.09869330376,
259.0599976,0.07416471839,
260,0.08445090055,
261.0700073,0.1123374626,
262,0.2738253474,
263.0700073,0.09679397196,
264,0.05818554014,
265.0700073,0.06988934427,
266,0.0644364506,
267.0700073,0.05179039389,
268,0.1411475241,
269.0700073,0.06368847191,
270,0.07509637624,
270.9299927,0.1738381833,
272.0299988,0.03226665407,
272.9599915,0.08360155672,
274.0599976,0,
275,0.1934950352,
275.9299927,0.124630563,
277.0299988,0.1194447577,
277.9599915,0.1284565479,
279.0599976,0.08646915108,
280,0.194266364,
280.9299927,0.1062934622,
282.0299988,0.1077407598,
282.9599915,0.09822056442,
284.0599976,0.06626960635,
285,0.007985689677,
285.9299927,0.1046622992,
287.0299988,0.06497039646,
287.9599915,0.1212581769,
289.0599976,0.06743713468,
290,0.05896921828,
291.0700073,0.05183406174,
292,0.04050714895,
293.0700073,0.007970477454,
294,0.1439732015,
295.0700073,0.04545661062,
296,0.07893509418,
297.0700073,0.1025900021,
298,0.09792241454,
299.0700073,0.1720681787,
300,0.1202690303,
300.9299927,0.1010243893,
302.0299988,0.08434014022,
302.9599915,0.03312501311,
304.0599976,0.05918981135,
305,0.02366891876,
305.9299927,0.09503784031,
307.0299988,0.1229668558,
307.9599915,0.06326911598,
309.0599976,0.08507741988,
310,0.2242344022,
311.0700073,-0.05425523594,
312,0.1556143463,
313.0700073,0.1286594719,
314,0.1118929759,
315.0700073,0.07667045295,
316,0.1529413462,
317.0700073,0.1760795861,
318,0.01524878386,
319.0700073,0,
320,0.07818363607,
321.0700073,0.1075384393,
322,0.07622881234,
323.0700073,0.1652027816,
324,0.04205391556,
325.0700073,0.07294371724,
326,0,
327.0700073,0.3394276202,
328,0.1475458294,
329.0700073,0.259273082,
330,0.2557013333,
330.9299927,0.6079643369,
332.0299988,1.024701476,
332.9599915,1.201210499,
334.0599976,1.660079002,
335,1.49939096,
335.9299927,1.507030249,
337.0299988,1.333185196,
337.9599915,0.9601843953,
339.0599976,0.6112862825,
340,0.459166944,
341.0700073,0.2567200363,
342,0.1188777983,
343.0700073,0.09779678285,
344,0.02827974223,
345.0700073,0.124472715,
346,0.08583813906,
347.0700073,0.1018937677,
348,0.1619814783,
349.0700073,0.3091333508,
350,0.2161757201,
351.0700073,0.2356986403,
352,0.256633997,
353.0700073,0.2797300816,
354,0.4174723327,
355.0700073,0.3274662197,
356,0.3509025574,
357.0700073,0.2449543625,
358,0.2204135656,
359.0700073,0.2264740318,
360,0.2041927576,
361.0700073,0.2035256922,
362,0.1677852422,
363.0700073,0.3419942558,
364,0.7372485399,

Sample 5,
Sample 5
Collection Time: 13/04/2023 2:26:50 PM
Operator Name  :
Scan Software Version: 1.2(147)
Parameter List :
Instrument                        Cary Eclipse
Instrument Serial Number          test
Data mode                         Fluorescence
Scan mode                         Excitation
X Mode                            Wavelength (nm)
Start (nm)                        220.00
Stop (nm)                         364.00
Em. Wavelength (nm)               374.00
Ex. Slit (nm)                     5
Em. Slit (nm)                     5
Scan rate (nm/min)                600.00
Data interval (nm)                1.0000
Averaging Time (s)                0.1000
Excitation filter                 Auto
Emission filter                   Open
PMT voltage (V)                   Medium
Corrected spectra                 OFF
Method Log     :
Method Name    : Default
Date/Time stamp: 13/04/2023 2:20:41 PM
Method Modifications:
Overlayed Graphs Changed: 13/04/2023 2:23:02 PM, Old:OFF, New:ON
Excitation Wavelength Changed: 13/04/2023 2:23:02 PM, Old: 350.00, New: 340.00
Emission Wavelength Changed: 13/04/2023 2:23:02 PM, Old: 400.00, New: 350.00
Stop Wavelength Changed: 13/04/2023 2:23:02 PM, Old: 600.00, New: 700.00
Scan mode: Changed: 13/04/2023 2:24:00 PM, Old:Emission, New:Excitation
Excitation Wavelength Changed: 13/04/2023 2:24:00 PM, Old: 340.00, New: 220.00
Emission Wavelength Changed: 13/04/2023 2:24:00 PM, Old: 350.00, New: 375.00
Stop Wavelength Changed: 13/04/2023 2:24:00 PM, Old: 700.00, New: 365.00
Scan mode: Changed: 13/04/2023 2:24:45 PM, Old:Excitation, New:Emission
Excitation Wavelength Changed: 13/04/2023 2:24:45 PM, Old: 220.00, New: 337.00
Emission Wavelength Changed: 13/04/2023 2:24:45 PM, Old: 375.00, New: 347.00
Stop Wavelength Changed: 13/04/2023 2:24:45 PM, Old: 365.00, New: 700.00
Scan mode: Changed: 13/04/2023 2:26:16 PM, Old:Emission, New:Excitation
Excitation Wavelength Changed: 13/04/2023 2:26:16 PM, Old: 337.00, New: 220.00
Emission Wavelength Changed: 13/04/2023 2:26:16 PM, Old: 347.00, New: 374.00
Stop Wavelength Changed: 13/04/2023 2:26:16 PM, Old: 700.00, New: 364.00
End Method Modifications

