Sample 13,,
Wavelength (nm),Intensity (a.u.),
474.9200134,0.2634131014,
475.9700012,0.1112840846,
476.8599854,0.07883967459,
477.9100037,0.08494316787,
478.9500122,0.08871444315,
479.8500061,0.08532823622,
480.8900146,0.08660289645,
481.9400024,0.09275722504,
482.980011,0.09443032742,
483.8800049,0.1111020595,
484.9200134,0.117694512,
485.9700012,0.1414813697,
486.8599854,0.1029564068,
487.9100037,0.1301336437,
488.9500122,0.1667174101,
489.8500061,0.137493521,
490.8900146,0.1415202171,
491.9400024,0.1000256166,
492.980011,0.09462516755,
493.8800049,0.09926387668,
494.9200134,0.1008473635,
495.9700012,0.09185499698,
496.8599854,0.0801487565,
497.9100037,0.07132980227,
498.9500122,0.07431997359,
499.8500061,0.09976708889,
500.8900146,0.07873599231,
501.9400024,0.09504407644,
502.980011,0.1054994985,
503.8800049,0.09837701917,
504.9200134,0.0499371402,
505.9700012,0.1043628752,
506.8599854,0.08789972216,
507.9100037,0.0874921903,
508.9500122,0.06793989986,
509.8500061,0.07014098018,
510.8900146,0.05630134419,
511.9400024,0.06054141,
512.9799805,0.06375157833,
513.8800049,0.04247201607,
514.9199829,0.03784003854,
515.9699707,0.05282542482,
516.8599854,0.0532493256,
517.9099731,0.02200058661,
518.9500122,0.05196380988,
519.8499756,0.051370617,
520.8800049,0.07450463623,
521.9099731,0.06395737082,
522.9400024,0.06495241821,
523.9699707,0.0422944352,
524.8499756,0.04251277447,
525.8800049,0.0475946255,
526.9099731,0.04037079215,
527.9400024,0.04018356651,
528.9699707,0.05923258141,
529.8499756,0.04078200832,
530.8900146,0.04769988731,
531.9400024,0.05353532359,
532.9799805,0.04285649583,
533.8800049,0.05297536775,
534.9199829,0.04572897404,
535.9699707,0.05979103595,
536.8599854,0.1040508002,
537.9099731,0.1337109208,
538.9500122,0.1294760406,
539.8499756,0.151356712,
540.8800049,0.178848803,
541.9099731,0.1587463766,
542.9400024,0.1813212037,
543.9699707,0.1510504931,
544.8499756,0.1807552576,
545.8800049,0.1099020466,
546.9099731,0.1062742621,
547.9400024,0.08980759978,
548.9699707,0.06980542094,
549.8499756,0.07861594856,
550.8800049,0.04976126924,
551.9099731,0.04275292531,
552.9400024,0.0126914829,
553.9699707,0.03001324274,
554.8499756,0.01775352098,
555.8800049,0.0251119677,
556.9099731,0.05066401511,
557.9400024,0.03208307922,
558.9699707,0.03319036961,
559.8499756,0.009980712086,
560.8800049,0.01377476007,
561.9099731,0.03573316336,
562.9400024,0.01762079075,
563.9699707,0.01830567606,
564.8499756,0.03650696576,
565.8800049,0.04909168184,
566.9099731,0.004818121903,
567.9400024,-0.002445068443,
568.9699707,0.017324524,
569.8499756,-0.00363064697,
570.8599854,0.03761816397,
571.8800049,0.03762711212,
572.8900146,0.01970703155,
573.9099731,0.01741460338,
574.9199829,0.0286423061,
575.9400024,0.01357106492,
576.9500122,0.02082373761,
577.9699707,0.0432195887,
578.9799805,0.009734206833,
579.8499756,0.02535019442,
580.8800049,0.01087893359,
581.9099731,0.03524901718,
582.9400024,0.02497839369,
583.9699707,0.06029666215,
584.8499756,-0.002579683205,
585.8800049,0.01988649741,
586.9099731,0.02425665967,
587.9400024,0.04895954952,
588.9699707,0.02261721343,
589.8499756,0.04007127881,
590.8599854,0.007483452093,
591.8800049,0.03170528635,
592.8900146,0.0162276458,
593.9099731,0.01981060952,
594.9199829,0.03474454209,
595.9400024,0.01000760589,
596.9500122,0.03545275331,
597.9699707,0.008815277368,
598.9799805,0.01353076752,
599.8499756,0.01268592756,
600.8599854,0.01983470283,
601.8800049,0.01971484907,
602.8900146,-0.03082249127,
603.9099731,0.00495334575,
604.9199829,0.03232371435,
605.9400024,0.03854218125,
606.9500122,0.04532697797,
607.9699707,0.01388838049,
608.9799805,0.01408533659,
609.8499756,0.02809171751,
610.8599854,0.03979312629,
611.8800049,0.0124762943,
612.8900146,-0.01248204149,
613.9099731,0.005007774569,
614.9199829,0.01149090752,
615.9400024,-0.001248897868,
616.9500122,-0.01632365957,
617.9699707,0.01147790905,
618.9799805,0.01903215237,
619.8499756,-0.02118559554,
620.8599854,0.01403222233,
621.8800049,0.004954278003,
622.8900146,0.009996500798,
623.9099731,-0.01277839299,
624.9199829,0.0151287457,
625.9400024,0.01398736518,
626.9500122,0.00248541683,
627.9699707,0.001259772689,
628.9799805,0.01945343055,
629.8499756,0.03051210381,
630.8499756,0.02817788348,
631.8499756,0.02966178209,
632.8499756,0.02940631285,
633.8499756,0.03063245118,
634.8499756,0.01846069843,
635.8499756,0.01130654663,
636.8499756,0.02729528584,
637.8499756,0.02133756503,
638.8499756,-0.01247909758,
639.8499756,0.0397432074,
640.8599854,0.03510227799,
641.8800049,0.01631722599,
642.8900146,0.003771506948,
643.9099731,0,
644.9199829,0.01489741262,
645.9400024,-0.01754243113,
646.9500122,0.01870867796,
647.9699707,0,
648.9799805,0.02772477828,
649.8499756,-0.0159796048,
650.8499756,-0.00771183474,
651.8499756,0,
652.8499756,0.0101571437,
653.8499756,0.03470695764,
654.8499756,-0.007559398189,
655.8499756,-0.009996175766,
656.8499756,0.03657939658,
657.8499756,0.009991507046,
658.8499756,0.007652797736,
659.8499756,0.02833040059,
660.8499756,0.04095942527,
661.8499756,0.03047468141,
662.8499756,0.01580686122,
663.8499756,0.02482177317,
664.8499756,-0.01279575843,
665.8499756,0.04606881738,
666.8499756,0.01391439885,
667.8499756,0.005216211546,
668.8499756,0.01523103565,
669.8499756,0.02759599872,
670.9799805,-0.002559518442,
671.9699707,0.01280744281,
672.9500122,0.02417484298,
673.9400024,-0.003767959075,
674.9199829,0.02546084113,
675.9099731,0.02166993544,
676.9000244,0.01923121326,
677.8800049,0.005189063493,
678.8699951,0.03177620843,
679.8499756,0.01820967719,
680.8499756,0.01644002646,
681.8499756,-0.005110710859,
682.8499756,0.01544670016,
683.8499756,-0.007735188585,
684.8499756,-0.006250539329,
685.8499756,-0.01142262388,
686.8499756,0.00897445064,
687.8499756,-0.003709584009,
688.8499756,0.00752726756,
689.8499756,0.02758551389,
690.9799805,0.02114980295,
691.9699707,-0.006251523737,
692.9500122,0.02409589663,
693.9400024,-0.02106648311,
694.9199829,0.01761035062,
695.9099731,0.02139032073,
696.9000244,0.02001275867,
697.8800049,0.03004156984,
698.8699951,0.002488329774,
699.8499756,0.01639050804,
700.9799805,0.030179644,
701.9699707,0.03410085663,
702.9500122,0.01872850955,
703.9400024,0.01255050022,
704.9199829,0.007613208145,
705.9099731,0.006413627416,
706.9000244,0.01615354232,
707.8800049,0.02616369165,
708.8699951,0.01764257438,
709.8499756,-0.00887226034,
710.9799805,-0.002513257321,
711.9699707,0.003776972415,
712.9500122,-0.002447707811,
713.9400024,-0.002500409493,
714.9199829,0.007462538313,
715.9099731,0.02646526322,
716.9000244,0.01628780738,
717.8800049,-0.03110400587,
718.8699951,0.01907797344,
719.8499756,0.03480491787,
720.9699707,0,
721.9400024,0.03415430337,
722.9099731,0.01362016611,
723.8800049,0.008580723777,
724.8599854,0.01751837134,
725.9699707,0.002509136451,
726.9400024,0.009569057263,
727.9099731,-0.00124080095,
728.8800049,0.02416279167,
729.8599854,0.01372270845,
730.9799805,0.01932553761,
731.9699707,0.02679412067,
732.9500122,0.02260746993,
733.9400024,0.02548001148,
734.9199829,0.003718444379,
735.9099731,0.002485870849,
736.9000244,0.01751924865,
737.8800049,-0.006319722161,
738.8699951,-0.01369617414,
739.8499756,0.00501252478,
740.9500122,0.001218166319,
741.9099731,-0.001243284671,
742.8699951,0.01947632991,
743.9699707,0.00485649053,
744.9299927,-0.001282140031,
745.8900146,0.003732322715,
746.9799805,0.04880741239,
747.9400024,0.01229103655,
748.9000244,0.004929726943,
749.8599854,0.01128877699,
750.9699707,0.01532741264,

Sample 13,
Sample 13
Collection Time: 1/08/2023 2:30:09 PM
Operator Name  :
Scan Software Version: 1.2(147)
Parameter List :
Instrument                        Cary Eclipse
Instrument Serial Number          test
Data mode                         Fluorescence
Scan mode                         Emission
X Mode                            Wavelength (nm)
Start (nm)                        475.00
Stop (nm)                         750.00
Ex. Wavelength (nm)               465.00
Ex. Slit (nm)                     5
Em. Slit (nm)                     5
Scan rate (nm/min)                120.00
Data interval (nm)                1.0000
Averaging Time (s)                0.5000
Excitation filter                 Auto
Emission filter                   Open
PMT voltage (V)                   Medium
Corrected spectra                 OFF
Method Log     :
Method Name    : Default
Date/Time stamp: 1/08/2023 12:56:44 PM
Method Modifications:
Overlayed Graphs Changed: 1/08/2023 2:04:18 PM, Old:OFF, New:ON
Excitation Wavelength Changed: 1/08/2023 2:04:18 PM, Old: 350.00, New: 327.00
Emission Wavelength Changed: 1/08/2023 2:04:18 PM, Old: 400.00, New: 337.00
Scan Control Changed: 1/08/2023 2:04:39 PM, Old:Medium, New:Slow
Ave. time (s): Changed: 1/08/2023 2:04:39 PM, Old:0.10000, New:0.50000
Scan Control Changed: 1/08/2023 2:08:46 PM, Old:Slow, New:Medium
Ave. time (s): Changed: 1/08/2023 2:08:46 PM, Old:0.50000, New:0.10000
Excitation Wavelength Changed: 1/08/2023 2:08:46 PM, Old: 327.00, New: 340.00
Emission Wavelength Changed: 1/08/2023 2:08:46 PM, Old: 337.00, New: 350.00
Excitation Wavelength Changed: 1/08/2023 2:09:58 PM, Old: 340.00, New: 310.00
Emission Wavelength Changed: 1/08/2023 2:09:58 PM, Old: 350.00, New: 320.00
Excitation Wavelength Changed: 1/08/2023 2:13:59 PM, Old: 310.00, New: 350.00
Emission Wavelength Changed: 1/08/2023 2:13:59 PM, Old: 320.00, New: 360.00
Scan Control Changed: 1/08/2023 2:14:44 PM, Old:Medium, New:Slow
Ave. time (s): Changed: 1/08/2023 2:14:44 PM, Old:0.10000, New:0.50000
Excitation Wavelength Changed: 1/08/2023 2:16:25 PM, Old: 350.00, New: 340.00
Emission Wavelength Changed: 1/08/2023 2:16:25 PM, Old: 360.00, New: 350.00
User Delta Stop Changed: 1/08/2023 2:24:01 PM, Old: 450.00, New: 475.00
User Delta Increment Changed: 1/08/2023 2:24:01 PM, Old:  10.00, New:   0.15
Excitation Wavelength Changed: 1/08/2023 2:24:01 PM, Old: 340.00, New: 475.00
Emission Wavelength Changed: 1/08/2023 2:24:01 PM, Old: 350.00, New: 485.00
Stop Wavelength Changed: 1/08/2023 2:24:01 PM, Old: 600.00, New: 750.00
Excitation Wavelength Changed: 1/08/2023 2:24:18 PM, Old: 475.00, New: 465.00
Emission Wavelength Changed: 1/08/2023 2:24:18 PM, Old: 485.00, New: 475.00
End Method Modifications

