Sample 4,,
Wavelength (nm),Intensity (a.u.),
384.9200134,5.186001301,
385.8399963,2.035665274,
386.9200134,1.205666542,
387.8399963,1.087747931,
388.9200134,1.045406461,
389.8399963,1.324210763,
390.8999939,1.358682275,
391.9599915,1.44089818,
392.8699951,1.474973917,
393.9299927,1.612945676,
394.8399963,1.566940188,
395.8999939,1.625016212,
396.9599915,1.791531324,
397.8699951,1.839788556,
398.9299927,1.79441452,
399.8399963,1.685709834,
400.8999939,1.522967696,
401.9599915,1.320147038,
402.8699951,1.136029601,
403.9299927,0.895552516,
404.8399963,0.7481686473,
405.8999939,0.7259764671,
406.9599915,0.6279864311,
407.8699951,0.5899134874,
408.9299927,0.5724232197,
409.8399963,0.6049364209,
410.8999939,0.6538566947,
411.9599915,0.7943429351,
412.8699951,0.7473680973,
413.9299927,0.9878175259,
414.8399963,1.170592427,
415.8999939,1.433062792,
416.9599915,1.911586046,
417.8699951,2.719754696,
418.9299927,3.945837259,
419.8399963,5.036887646,
420.8999939,7.159124374,
421.9599915,8.747117043,
422.8699951,10.07293606,
423.9299927,11.21207237,
424.8399963,11.32789707,
425.8999939,10.20065212,
426.9599915,8.944440842,
427.8699951,7.393679619,
428.9299927,5.775880814,
429.8399963,4.678598404,
430.8900146,4.034849644,
431.9400024,3.607454777,
432.980011,3.421152592,
433.8800049,3.391978264,
434.9200134,3.513716459,
435.9700012,3.366810083,
436.8599854,3.541911602,
437.9100037,3.648302078,
438.9500122,3.576891422,
439.8500061,3.678193331,
440.8999939,3.813792467,
441.9599915,4.102217674,
442.8699951,4.003358364,
443.9299927,4.124354839,
444.8399963,4.445037842,
445.8999939,4.412063599,
446.9599915,4.662103176,
447.8699951,4.858802795,
448.9299927,4.995851994,
449.8399963,4.961029053,
450.8999939,5.151271343,
451.9599915,5.424934387,
452.8699951,5.749621391,
453.9299927,5.634215832,
454.8399963,5.76899147,
455.8999939,5.677275181,
456.9599915,6.015487671,
457.8699951,6.031413555,
458.9299927,5.959936619,
459.8399963,5.905066013,
460.8900146,6.145663261,
461.9400024,6.198552132,
462.980011,5.772860527,
463.8800049,6.047562599,
464.9200134,6.266459465,
465.9700012,6.17749548,
466.8599854,6.069761753,
467.9100037,6.047090054,
468.9500122,6.039318085,
469.8500061,6.103886604,
470.8900146,5.897298813,
471.9400024,5.845332623,
472.980011,5.996166229,
473.8800049,5.817955017,
474.9200134,5.919338226,
475.9700012,6.01766777,
476.8599854,6.010614395,
477.9100037,5.820671558,
478.9500122,5.691548347,
479.8500061,5.666481018,
480.8900146,5.842026711,
481.9400024,5.781699181,
482.980011,5.760051727,
483.8800049,5.873128414,
484.9200134,5.445618629,
485.9700012,5.585783005,
486.8599854,5.633354187,
487.9100037,5.417854309,
488.9500122,5.489634991,
489.8500061,5.265936375,
490.8900146,5.279768944,
491.9400024,5.207865238,
492.980011,5.115836143,
493.8800049,4.725585461,
494.9200134,5.002352715,
495.9700012,4.770372868,
496.8599854,4.899132729,
497.9100037,4.429790497,
498.9500122,4.652339935,
499.8500061,4.658085346,
500.8900146,4.599405289,
501.9400024,4.273342133,
502.980011,4.28637886,
503.8800049,4.133890629,
504.9200134,4.163644314,
505.9700012,4.085926056,
506.8599854,3.996645451,
507.9100037,4.047459602,
508.9500122,3.854562998,
509.8500061,3.807030201,
510.8900146,3.798944235,
511.9400024,3.554604292,
512.9799805,3.491590023,
513.8800049,3.601159811,
514.9199829,3.523377657,
515.9699707,3.370795012,
516.8599854,3.264309883,
517.9099731,3.457216024,
518.9500122,3.424872875,
519.8499756,3.17159009,
520.8800049,3.079398632,
521.9099731,3.130470991,
522.9400024,2.986727476,
523.9699707,2.784560442,
524.8499756,2.771905899,
525.8800049,2.672086477,
526.9099731,2.805045128,
527.9400024,2.717182875,
528.9699707,2.566473722,
529.8499756,2.567572355,
530.8900146,2.471247435,
531.9400024,2.515743971,
532.9799805,2.384657621,
533.8800049,2.185402632,
534.9199829,2.346736193,
535.9699707,2.126941681,
536.8599854,2.187621355,
537.9099731,1.998458505,
538.9500122,2.160257101,
539.8499756,1.982533813,
540.8800049,1.9963938,
541.9099731,1.858706474,
542.9400024,1.861917496,
543.9699707,1.806538463,
544.8499756,1.72246182,
545.8800049,1.732340217,
546.9099731,1.546026111,
547.9400024,1.545698881,
548.9699707,1.420247197,
549.8499756,1.516458154,
550.8800049,1.468391776,
551.9099731,1.450573683,
552.9400024,1.473059177,
553.9699707,1.352681875,
554.8499756,1.386382222,
555.8800049,1.283501983,
556.9099731,1.338674307,
557.9400024,1.203733802,
558.9699707,1.265159011,
559.8499756,1.245425344,
560.8800049,1.167622209,
561.9099731,1.052669168,
562.9400024,1.091944575,
563.9699707,1.134660482,
564.8499756,0.9954548478,
565.8800049,0.9982110858,
566.9099731,1.027076125,
567.9400024,0.9080833197,
568.9699707,0.9009134173,
569.8499756,0.911598444,
570.8599854,0.9195772409,
571.8800049,0.824664712,
572.8900146,0.9387097359,
573.9099731,0.7986989021,
574.9199829,0.7707712054,
575.9400024,0.7389327884,
576.9500122,0.75688833,
577.9699707,0.7468308806,
578.9799805,0.7647809982,
579.8499756,0.683360219,
580.8800049,0.6761351228,
581.9099731,0.6425644755,
582.9400024,0.6081141233,
583.9699707,0.6342052221,
584.8499756,0.6086078286,
585.8800049,0.5650297403,
586.9099731,0.5712409019,
587.9400024,0.5036514401,
588.9699707,0.5419083834,
589.8499756,0.4734115899,
590.8599854,0.4790891409,
591.8800049,0.4640785754,
592.8900146,0.4436172545,
593.9099731,0.4828896821,
594.9199829,0.4402837157,
595.9400024,0.417257309,
596.9500122,0.3673035204,
597.9699707,0.3994119167,
598.9799805,0.3591508567,
599.8499756,0.425460875,
600.8599854,0.3741418719,
601.8800049,0.3673648238,
602.8900146,0.3774066567,
603.9099731,0.3513952196,
604.9199829,0.368737787,
605.9400024,0.2782943547,
606.9500122,0.3413058519,
607.9699707,0.3200767338,
608.9799805,0.314419657,
609.8499756,0.2817724049,
610.8599854,0.2595911026,
611.8800049,0.2910846174,
612.8900146,0.2826016545,
613.9099731,0.2808592916,
614.9199829,0.2907974422,
615.9400024,0.2545904517,
616.9500122,0.2916228473,
617.9699707,0.2724482417,
618.9799805,0.2046245188,
619.8499756,0.2348919511,
620.8599854,0.2099952251,
621.8800049,0.2499900609,
622.8900146,0.2392774373,
623.9099731,0.2438498884,
624.9199829,0.2287978977,
625.9400024,0.1799177676,
626.9500122,0.2162974328,
627.9699707,0.1823721677,
628.9799805,0.1190939173,
629.8499756,0.208453685,
630.8499756,0.1736994684,
631.8499756,0.1853580028,
632.8499756,0.1849862933,
633.8499756,0.1966212243,
634.8499756,0.1664568931,
635.8499756,0.1613598764,
636.8499756,0.1068638712,
637.8499756,0.1338577867,
638.8499756,0.1365385652,
639.8499756,0.1328225136,
640.8599854,0.1505418569,
641.8800049,0.143867135,
642.8900146,0.1235505641,
643.9099731,0.104765527,
644.9199829,0.1256803423,
645.9400024,0.1306705177,
646.9500122,0.1235338449,
647.9699707,0.104131557,
648.9799805,0.1164162233,
649.8499756,0.08758892119,
650.8499756,0.1549921036,

Sample 4,
Sample 4
Collection Time: 27/06/2023 5:00:23 PM
Operator Name  :
Scan Software Version: 1.2(147)
Parameter List :
Instrument                        Cary Eclipse
Instrument Serial Number          test
Data mode                         Fluorescence
Scan mode                         Emission
X Mode                            Wavelength (nm)
Start (nm)                        385.00
Stop (nm)                         650.00
Ex. Wavelength (nm)               375.00
Ex. Slit (nm)                     5
Em. Slit (nm)                     5
Scan rate (nm/min)                60.00
Data interval (nm)                1.0000
Averaging Time (s)                1.0000
Excitation filter                 Auto
Emission filter                   Open
PMT voltage (V)                   High
Corrected spectra                 OFF
Method Log     :
Method Name    : Default
Date/Time stamp: 27/06/2023 4:28:13 PM
Method Modifications:
Overlayed Graphs Changed: 27/06/2023 4:58:13 PM, Old:OFF, New:ON
PMT Volts Changed: 27/06/2023 4:58:13 PM, Old:600, New:800
Emission PMT (V): Changed: 27/06/2023 4:58:13 PM, Old: 600, New: 800
Excitation Wavelength Changed: 27/06/2023 4:58:13 PM, Old: 350.00, New: 375.00
Emission Wavelength Changed: 27/06/2023 4:58:13 PM, Old: 400.00, New: 385.00
Scan Control Changed: 27/06/2023 4:58:47 PM, Old:Medium, New:Slow
Ave. time (s): Changed: 27/06/2023 4:58:47 PM, Old:0.10000, New:0.50000
Scan Control Changed: 27/06/2023 4:59:39 PM, Old:Slow, New:Manual
Ave. time (s): Changed: 27/06/2023 4:59:39 PM, Old:0.50000, New:0.20000
Stop Wavelength Changed: 27/06/2023 4:59:46 PM, Old: 600.00, New: 650.00
Ave. time (s): Changed: 27/06/2023 5:00:03 PM, Old:0.20000, New:1.00000
End Method Modifications

