Sample 55,,
Wavelength (nm),Intensity (a.u.),
220,-0.4533091486,
220.9299927,0.6308352351,
222.0299988,-0.9534908533,
222.9600067,0.4546694756,
224.0599976,0.1391594708,
225,0.3064664602,
225.9299927,-0.1951752603,
227.0299988,0.05792903528,
227.9600067,0,
229.0599976,0.02271643095,
230,-0.09236595035,
230.9299927,0.04652244598,
232.0299988,0.2087410241,
232.9600067,0.05481554568,
234.0599976,0.1778726429,
235,0.2050681114,
235.9299927,0.3720876873,
237.0299988,0.1061317623,
237.9600067,-0.07117437571,
239.0599976,0.01978669874,
240,-0.03426769748,
240.9299927,0,
242.0299988,-0.01330707408,
242.9600067,0.06331358105,
244.0599976,-0.03376173228,
245,0.02182333916,
245.9299927,-0.02008415386,
247.0299988,0.009820193052,
247.9600067,0.07139141858,
249.0599976,0.03378302604,
250,0.02420984954,
250.9299927,-0.09282342345,
252.0299988,0.2250427604,
252.9600067,0.03182838112,
254.0599976,0.09738678485,
255,0.1237757802,
255.9299927,0.06678242236,
257.0299988,0.1649457216,
257.9599915,0.2049352229,
259.0599976,0.297255069,
260,0.3339455724,
261.0700073,0.3916541934,
262,0.4378450513,
263.0700073,0.4690156579,
264,0.510664165,
265.0700073,0.6810589433,
266,0.6029021144,
267.0700073,0.6701322198,
268,0.8065677881,
269.0700073,0.9794803262,
270,0.8355327845,
270.9299927,0.9030089974,
272.0299988,0.8570280075,
272.9599915,0.8915944099,
274.0599976,1.018704057,
275,0.9536696076,
275.9299927,0.925670445,
277.0299988,0.9332122803,
277.9599915,1.02639997,
279.0599976,0.9010372758,
280,1.087926745,
280.9299927,1.108350158,
282.0299988,1.012268662,
282.9599915,1.130360365,
284.0599976,1.121188998,
285,0.8958428502,
285.9299927,0.9076343775,
287.0299988,0.7485678792,
287.9599915,0.576415658,
289.0599976,0.4690841734,
290,0.5070953369,
291.0700073,0.383048892,
292,0.3934963048,
293.0700073,0.3257015347,
294,0.3496952653,
295.0700073,0.3275919855,
296,0.3883467615,
297.0700073,0.4054219425,
298,0.3617537618,
299.0700073,0.3005524874,
300,0.3899209797,
300.9299927,0.4943294823,
302.0299988,0.361328125,
302.9599915,0.4208798707,
304.0599976,0.5685407519,
305,1.295628071,
305.9299927,2.521081448,
307.0299988,4.253046036,
307.9599915,5.11130619,
309.0599976,5.560612679,
310,5.275474072,
311.0700073,3.826719522,
312,2.622083187,
313.0700073,1.38993597,
314,0.6670790315,
315.0700073,0.1463524997,
316,0.1640464813,
317.0700073,0.2312305719,
318,0.122669287,
319.0700073,0.04516031966,
320,0.1977456957,
321.0700073,0.05793239176,
322,0.09762901068,
323.0700073,0.1640105993,
324,0.05584018305,
325.0700073,0.2350279838,
326,0.1192090511,
327.0700073,0.3424936831,
328,0.03605422378,
329.0700073,0.1910485178,
330,0.09801198542,
330.9299927,0.2138580084,
332.0299988,0.1412695348,
332.9599915,0.1344854236,
334.0599976,0.1621376276,
335,0.2099113166,
335.9299927,0.1366050243,
337.0299988,0.1907820404,
337.9599915,0.2201084793,
339.0599976,0.03183446079,
340,0.1745865494,
341.0700073,0.1838235259,
342,0.2497034669,
343.0700073,0.1723791212,
344,0.08299673349,
345.0700073,0.07036060095,
346,0.1880324632,
347.0700073,0.3033152223,
348,0.201581642,
349.0700073,0.07613826543,
350,0.257720232,
351.0700073,0.2311667055,
352,0.09082888067,
353.0700073,0.09829820693,
354,0.1837222129,
355.0700073,0.1614865363,
356,0.113495566,
357.0700073,0.1245595887,
358,0.1475310326,
359.0700073,0.1451833546,
360,0.144779548,
361.0700073,0.1345502734,
362,0.1103665754,
363.0700073,0.1642816961,
364,0,
365.0700073,0.0210009031,
366,0.1498230994,
367.0700073,0.03450417519,
368,0.03465563804,
369.0700073,0.02427508496,
370,0.1883802563,
371.0599976,0.1163245663,
371.9599915,0.1615476161,
373.0299988,0.07942260057,
373.9299927,0.1385809332,
375,0.1330459416,
376.0599976,0.1862924248,
376.9599915,0.08717044443,
378.0299988,0.1275103539,
378.9299927,0.08700267226,
380,0.1317932308,
381.0700073,0.1245108396,
382,0.08072255552,
383.0700073,0.1620441526,
384,0.1815675944,
385.0700073,0.1765720993,
386,0.1370144635,
387.0700073,0.1467646062,
388,0.08878891915,
389.0700073,0.1265680343,
390,0.1183175296,
391.0700073,0.1089834422,
392,0.1511074007,
393.0700073,0.1224771291,
394,0.1500619799,
395.0700073,0.0413450934,
396,0.09750593454,
397.0700073,0.04329535365,
398,0.1334707588,
399.0700073,0.07005254179,
400,0.09320599586,
401.0599976,0.111182332,
401.9599915,0.1247586906,
403.0299988,0.07117852569,
403.9299927,0.1534495354,
405,0.1224754825,
406.0599976,0.1624593884,
406.9599915,0.1309225261,
408.0299988,0.09099180996,
408.9299927,0.1366626918,
410,0.1412360072,
411.0700073,0.1515721083,
412,0.1492581815,
413.0700073,0.1067313775,
414,0.133370325,
415.0700073,0.1190958247,
416,0.1373525709,
417.0700073,0.1396005899,
418,0.09659541398,
419.0700073,0.1322636306,
420,0.1200289354,
421.0599976,0.1254090965,
421.9599915,0.08783744276,
423.0299988,0.1287107766,
423.9299927,0.1214457676,
425,0.1000127569,
426.0599976,0.09749580175,
426.9599915,0.1356016248,
428.0299988,0.1284950674,
428.9299927,0.03328991681,
430,0.1210532486,
431.0599976,0.06465795636,
431.9599915,0.09562455118,
433.0299988,0.110220395,
433.9299927,0.1436056346,
435,0.1186249331,
436.0599976,0.1356294453,
436.9599915,0.1155392304,
438.0299988,0.1389098316,
438.9299927,0.1178281307,
440,0.1150461808,
441.0599976,0.0939829275,
441.9599915,0.09173941612,
443.0299988,0.1161280051,
443.9299927,0.1181247681,
445,0.1615202576,
446.0599976,0.1378379166,
446.9599915,0.1401607096,
448.0299988,0.1151644737,
448.9299927,0.1559415758,
450,0.08286205679,
451.0599976,0.1195425466,
451.9599915,0.1367892474,
453.0299988,0.1306031048,
453.9299927,0.1416885555,
455,0.1874423325,
456.0599976,0.08265373856,
456.9599915,0.1669942886,
458.0299988,0.1260929853,
458.9299927,0.14616175,
460,0.1383556426,
461.0599976,0.1656600833,
461.9599915,0.145366326,
463.0299988,0.1064887121,
463.9299927,0.1362390071,
465,0.1350994855,
466.0599976,0.1476062238,
466.9599915,0.1719131917,
468.0299988,0.1248316392,
468.9299927,0.1275715828,
470,0.09638288617,
471.0400085,0.1695085019,
471.9400024,0.1976704299,
472.980011,0.1826964617,
474.019989,0.08444131166,
475.0700073,0.09839241952,
475.9700012,0.1390067637,
477.0100098,0.1453826427,
478.0499878,0.1668722332,
478.9500122,0.1117458045,
480,0.1777665615,
481.0599976,0.1275126487,
481.9599915,0.1122450754,
483.0299988,0.1251897365,
483.9299927,0.1234272346,
485,0.08879452199,
486.0599976,0.1241575629,
486.9599915,0.133133769,
488.0299988,0.1085573584,
488.9299927,0.1377129257,
490,0.1273941547,
491.0400085,0.1266573071,
491.9400024,0.1583444774,
492.980011,0.1565047204,
494.019989,0.1504685134,
495.0700073,0.1402420998,
495.9700012,0.1698369533,
497.0100098,0.07191485167,
498.0499878,0.1518807858,
498.9500122,0.0175797902,
500,0.1731223017,
501.0599976,0.1780533493,
501.9599915,0.08021900058,
503.0299988,0.1021033302,
503.9299927,0.1013664231,
505,0.1734888703,
506.0599976,0.09096974134,
506.9599915,0.1372212768,
508.0299988,0.1676247567,
508.9299927,0.05771173164,
510,0.1549141705,
511.0400085,0.1108944565,
511.9400024,-0.00934413448,
512.9799805,0.1497215182,
514.0200195,0.1721861959,
515.0700073,0.1273922771,
515.9699707,0.1481042653,
517.0100098,0.07099310309,
518.0499878,0.05223068595,
518.9500122,0.01748664491,
520,0.07901321352,
521.039978,0.05439117923,
521.9400024,0.05638832599,
522.9799805,0.1258641928,
524.0200195,0.1639938504,
525.0700073,0.2111297995,
525.9699707,0.166229412,
527.0100098,0.1386455595,
528.0499878,0.1351404637,
528.9500122,0.1035327688,
530,0.0865111798,
531.0200195,0.05791878328,
532.0499878,0.02605659515,
532.9400024,0.07933726907,
533.9699707,0.0583162643,
535,0.1563660502,
536.0200195,0.1451412141,
537.0499878,0.09700810909,
537.9400024,0.1018805429,
538.9699707,0.08152750134,
540,0.06107989699,
541.039978,0.04481625184,
541.9400024,0.06062764674,
542.9799805,0.1120833308,
544.0200195,0.1230920777,
545.0700073,0.08846034855,
545.9699707,0.1959156245,
547.0100098,-0.0619527474,
548.0499878,0.09440753609,
548.9500122,-0.0498952195,
550,0.1016643941,
551.0200195,0.1871257573,
552.0499878,0.01494522486,
552.9400024,-0.0445374772,
553.9699707,0,
555,0.01697130129,
556.0200195,0.105988346,
557.0499878,0.2633460164,
557.9400024,0.1975574642,
558.9699707,0.03756997362,
560,0.2991101444,
561.039978,0.2177502811,
561.9400024,0.1267472953,
562.9799805,0.1923951507,
564.0200195,0.05305321142,
565.0700073,0.01673752256,
565.9699707,0.06587832421,
567.0100098,0.03367343545,
568.0499878,0.1140232235,
568.9500122,0.04913039133,
570,-0.06434281915,
571.0200195,0.2173980623,
572.0499878,0.09133253992,
572.9400024,-0.02945551649,
573.9699707,0.194145754,
575,0.09159885347,
576.0200195,-0.06708483398,
577.0499878,0.08764702827,
577.9400024,-0.1813828498,
578.9699707,-0.1753804833,
580,-0.08321544528,
581.0200195,0.1826025397,
582.0499878,0.02256724983,
582.9400024,0,
583.9699707,0.1164605319,
585,0.231208533,
586.0200195,0.1170960143,
587.0499878,-0.02317174897,
587.9400024,0.1344296783,
588.9699707,0.06587759405,
590,0.1076681241,
591.0200195,-0.04457817972,
592.0499878,0.2164736539,
592.9400024,0.1499122083,
593.9699707,0.2138854414,
595,0.1166861132,
596.0200195,0.2156989574,
597.0499878,0.1122145578,
597.9400024,0.03831050545,
598.9699707,0.1425952315,
600,0.06104757637,
601.0100098,0.0204591006,
602.0200195,0,
603.039978,0.09592694789,
604.0499878,0.07320108265,
605.0700073,0.1810020357,
605.9400024,0.1121872738,
606.9500122,-0.05579942092,
607.9699707,0.03893701732,
608.9799805,-0.1848239005,
610,0.182930544,
611.0200195,0.3647834063,
612.0499878,0.1376999617,

Sample 55,
Sample 55
Collection Time: 21/05/2023 5:14:21 PM
Operator Name  :
Scan Software Version: 1.2(147)
Parameter List :
Instrument                        Cary Eclipse
Instrument Serial Number          test
Data mode                         Fluorescence
Scan mode                         Excitation
X Mode                            Wavelength (nm)
Start (nm)                        220.00
Stop (nm)                         612.00
Em. Wavelength (nm)               622.00
Ex. Slit (nm)                     5
Em. Slit (nm)                     5
Scan rate (nm/min)                600.00
Data interval (nm)                1.0000
Averaging Time (s)                0.1000
Excitation filter                 Auto
Emission filter                   Open
PMT voltage (V)                   Medium
Corrected spectra                 OFF
Method Log     :
Method Name    : Default
Date/Time stamp: 21/05/2023 11:47:26 AM
Method Modifications:
Overlayed Graphs Changed: 21/05/2023 1:20:46 PM, Old:OFF, New:ON
Excitation Wavelength Changed: 21/05/2023 1:20:46 PM, Old: 350.00, New: 341.00
Emission Wavelength Changed: 21/05/2023 1:20:46 PM, Old: 400.00, New: 351.00
Stop Wavelength Changed: 21/05/2023 1:20:46 PM, Old: 600.00, New: 650.00
PMT Volts Changed: 21/05/2023 1:21:47 PM, Old:600, New:800
Emission PMT (V): Changed: 21/05/2023 1:21:47 PM, Old: 600, New: 800
Scan mode: Changed: 21/05/2023 1:22:38 PM, Old:Emission, New:Excitation
Excitation Wavelength Changed: 21/05/2023 1:22:38 PM, Old: 341.00, New: 220.00
Emission Wavelength Changed: 21/05/2023 1:22:38 PM, Old: 351.00, New: 381.00
Stop Wavelength Changed: 21/05/2023 1:22:38 PM, Old: 650.00, New: 371.00
Scan mode: Changed: 21/05/2023 1:24:38 PM, Old:Excitation, New:Emission
Excitation Wavelength Changed: 21/05/2023 1:24:38 PM, Old: 220.00, New: 381.00
Emission Wavelength Changed: 21/05/2023 1:24:38 PM, Old: 381.00, New: 220.00
Excitation Wavelength Changed: 21/05/2023 1:24:52 PM, Old: 381.00, New: 339.00
Emission Wavelength Changed: 21/05/2023 1:24:52 PM, Old: 220.00, New: 349.00
Stop Wavelength Changed: 21/05/2023 1:24:52 PM, Old: 371.00, New: 650.00
User Delta Stop Changed: 21/05/2023 1:31:08 PM, Old: 450.00, New: 553.00
User Delta Increment Changed: 21/05/2023 1:31:08 PM, Old:  10.00, New:   0.15
Excitation Wavelength Changed: 21/05/2023 1:31:08 PM, Old: 339.00, New: 553.00
Emission Wavelength Changed: 21/05/2023 1:31:08 PM, Old: 349.00, New: 563.00
Stop Wavelength Changed: 21/05/2023 1:31:08 PM, Old: 650.00, New: 850.00
PMT Volts Changed: 21/05/2023 1:31:49 PM, Old:800, New:600
Emission PMT (V): Changed: 21/05/2023 1:31:49 PM, Old: 800, New: 600
Scan mode: Changed: 21/05/2023 1:33:46 PM, Old:Emission, New:Excitation
User Delta Stop Changed: 21/05/2023 1:33:46 PM, Old: 553.00, New: 630.00
Excitation Wavelength Changed: 21/05/2023 1:33:46 PM, Old: 553.00, New: 220.00
Emission Wavelength Changed: 21/05/2023 1:33:46 PM, Old: 563.00, New: 630.00
Stop Wavelength Changed: 21/05/2023 1:33:46 PM, Old: 850.00, New: 620.00
Scan mode: Changed: 21/05/2023 1:43:42 PM, Old:Excitation, New:Emission
Excitation Wavelength Changed: 21/05/2023 1:43:42 PM, Old: 220.00, New: 352.00
Emission Wavelength Changed: 21/05/2023 1:43:42 PM, Old: 630.00, New: 362.00
Stop Wavelength Changed: 21/05/2023 1:43:42 PM, Old: 620.00, New: 650.00
Scan mode: Changed: 21/05/2023 1:45:14 PM, Old:Emission, New:Excitation
Excitation Wavelength Changed: 21/05/2023 1:45:14 PM, Old: 352.00, New: 220.00
Emission Wavelength Changed: 21/05/2023 1:45:14 PM, Old: 362.00, New: 377.00
Stop Wavelength Changed: 21/05/2023 1:45:14 PM, Old: 650.00, New: 367.00
Scan mode: Changed: 21/05/2023 1:48:20 PM, Old:Excitation, New:Emission
Excitation Wavelength Changed: 21/05/2023 1:48:20 PM, Old: 220.00, New: 350.00
Emission Wavelength Changed: 21/05/2023 1:48:20 PM, Old: 377.00, New: 360.00
Stop Wavelength Changed: 21/05/2023 1:48:20 PM, Old: 367.00, New: 550.00
Excitation Wavelength Changed: 21/05/2023 1:48:48 PM, Old: 350.00, New: 340.00
Emission Wavelength Changed: 21/05/2023 1:48:48 PM, Old: 360.00, New: 350.00
PMT Volts Changed: 21/05/2023 1:49:10 PM, Old:600, New:800
Emission PMT (V): Changed: 21/05/2023 1:49:10 PM, Old: 600, New: 800
Excitation Wavelength Changed: 21/05/2023 2:04:44 PM, Old: 340.00, New: 470.00
Emission Wavelength Changed: 21/05/2023 2:04:44 PM, Old: 350.00, New: 480.00
Stop Wavelength Changed: 21/05/2023 2:04:44 PM, Old: 550.00, New: 700.00
PMT Volts Changed: 21/05/2023 2:05:04 PM, Old:800, New:600
Emission PMT (V): Changed: 21/05/2023 2:05:04 PM, Old: 800, New: 600
Scan mode: Changed: 21/05/2023 2:07:15 PM, Old:Emission, New:Excitation
Excitation Wavelength Changed: 21/05/2023 2:07:15 PM, Old: 470.00, New: 220.00
Emission Wavelength Changed: 21/05/2023 2:07:15 PM, Old: 480.00, New: 540.00
Stop Wavelength Changed: 21/05/2023 2:07:15 PM, Old: 700.00, New: 530.00
Scan mode: Changed: 21/05/2023 2:14:20 PM, Old:Excitation, New:Emission
Excitation Wavelength Changed: 21/05/2023 2:14:20 PM, Old: 220.00, New: 366.00
Emission Wavelength Changed: 21/05/2023 2:14:20 PM, Old: 540.00, New: 376.00
Stop Wavelength Changed: 21/05/2023 2:14:20 PM, Old: 530.00, New: 550.00
Stop Wavelength Changed: 21/05/2023 2:15:00 PM, Old: 550.00, New: 650.00
Scan mode: Changed: 21/05/2023 2:17:05 PM, Old:Emission, New:Excitation
Excitation Wavelength Changed: 21/05/2023 2:17:05 PM, Old: 366.00, New: 220.00
Emission Wavelength Changed: 21/05/2023 2:17:05 PM, Old: 376.00, New: 445.00
Stop Wavelength Changed: 21/05/2023 2:17:05 PM, Old: 650.00, New: 435.00
Scan mode: Changed: 21/05/2023 3:04:18 PM, Old:Excitation, New:Emission
Excitation Wavelength Changed: 21/05/2023 3:04:18 PM, Old: 220.00, New: 335.00
Emission Wavelength Changed: 21/05/2023 3:04:18 PM, Old: 445.00, New: 345.00
Stop Wavelength Changed: 21/05/2023 3:04:18 PM, Old: 435.00, New: 650.00
Stop Wavelength Changed: 21/05/2023 3:05:08 PM, Old: 650.00, New: 700.00
Scan mode: Changed: 21/05/2023 3:07:25 PM, Old:Emission, New:Excitation
Excitation Wavelength Changed: 21/05/2023 3:07:25 PM, Old: 335.00, New: 220.00
Emission Wavelength Changed: 21/05/2023 3:07:25 PM, Old: 345.00, New: 508.00
Stop Wavelength Changed: 21/05/2023 3:07:25 PM, Old: 700.00, New: 498.00
Scan mode: Changed: 21/05/2023 3:13:25 PM, Old:Excitation, New:Emission
Excitation Wavelength Changed: 21/05/2023 3:13:25 PM, Old: 220.00, New: 427.00
Emission Wavelength Changed: 21/05/2023 3:13:25 PM, Old: 508.00, New: 437.00
Stop Wavelength Changed: 21/05/2023 3:13:25 PM, Old: 498.00, New: 650.00
Stop Wavelength Changed: 21/05/2023 3:13:58 PM, Old: 650.00, New: 750.00
Scan mode: Changed: 21/05/2023 3:16:50 PM, Old:Emission, New:Excitation
Excitation Wavelength Changed: 21/05/2023 3:16:50 PM, Old: 427.00, New: 220.00
Emission Wavelength Changed: 21/05/2023 3:16:50 PM, Old: 437.00, New: 528.00
Stop Wavelength Changed: 21/05/2023 3:16:50 PM, Old: 750.00, New: 518.00
Scan mode: Changed: 21/05/2023 4:47:47 PM, Old:Excitation, New:Emission
User Delta Stop Changed: 21/05/2023 4:47:47 PM, Old: 630.00, New: 696.00
Excitation Wavelength Changed: 21/05/2023 4:47:47 PM, Old: 220.00, New: 696.00
Emission Wavelength Changed: 21/05/2023 4:47:47 PM, Old: 528.00, New: 706.00
Stop Wavelength Changed: 21/05/2023 4:47:47 PM, Old: 518.00, New: 850.00
Excitation Wavelength Changed: 21/05/2023 4:48:12 PM, Old: 696.00, New: 587.00
Emission Wavelength Changed: 21/05/2023 4:48:12 PM, Old: 706.00, New: 597.00
Scan mode: Changed: 21/05/2023 4:49:20 PM, Old:Emission, New:Excitation
User Delta Stop Changed: 21/05/2023 4:49:20 PM, Old: 696.00, New: 750.00
Excitation Wavelength Changed: 21/05/2023 4:49:20 PM, Old: 587.00, New: 400.00
Emission Wavelength Changed: 21/05/2023 4:49:20 PM, Old: 597.00, New: 750.00
Stop Wavelength Changed: 21/05/2023 4:49:20 PM, Old: 850.00, New: 740.00
User Delta Stop Changed: 21/05/2023 4:50:16 PM, Old: 750.00, New: 760.00
Emission Wavelength Changed: 21/05/2023 4:50:16 PM, Old: 750.00, New: 760.00
Stop Wavelength Changed: 21/05/2023 4:50:16 PM, Old: 740.00, New: 750.00
Scan mode: Changed: 21/05/2023 4:54:28 PM, Old:Excitation, New:Emission
Excitation Wavelength Changed: 21/05/2023 4:54:28 PM, Old: 400.00, New: 638.00
Emission Wavelength Changed: 21/05/2023 4:54:28 PM, Old: 760.00, New: 648.00
Stop Wavelength Changed: 21/05/2023 4:54:28 PM, Old: 750.00, New: 850.00
Excitation Wavelength Changed: 21/05/2023 5:08:46 PM, Old: 638.00, New: 569.00
Emission Wavelength Changed: 21/05/2023 5:08:46 PM, Old: 648.00, New: 576.00
Stop Wavelength Changed: 21/05/2023 5:08:46 PM, Old: 850.00, New: 750.00
Excitation Wavelength Changed: 21/05/2023 5:09:36 PM, Old: 569.00, New: 512.00
Emission Wavelength Changed: 21/05/2023 5:09:36 PM, Old: 576.00, New: 522.00
Scan mode: Changed: 21/05/2023 5:11:28 PM, Old:Emission, New:Excitation
Excitation Wavelength Changed: 21/05/2023 5:11:28 PM, Old: 512.00, New: 220.00
Emission Wavelength Changed: 21/05/2023 5:11:28 PM, Old: 522.00, New: 604.00
Stop Wavelength Changed: 21/05/2023 5:11:28 PM, Old: 750.00, New: 594.00
Emission Wavelength Changed: 21/05/2023 5:13:07 PM, Old: 604.00, New: 622.00
Stop Wavelength Changed: 21/05/2023 5:13:07 PM, Old: 594.00, New: 612.00
End Method Modifications

