Sample 2,,
Wavelength (nm),Intensity (a.u.),
400,1.381911397,
401.0599976,0.4943678975,
401.9599915,0.3747371435,
403.0299988,0.3767227829,
403.9299927,0.41539222,
405,0.4258118272,
406.0599976,0.4946864247,
406.9599915,0.4756048024,
408.0299988,0.5489828587,
408.9299927,0.5641672611,
410,0.4964046478,
411.0599976,0.5500854254,
411.9599915,0.5026240945,
413.0299988,0.4372496903,
413.9299927,0.4413124919,
415,0.4473300874,
416.0599976,0.4239568412,
416.9599915,0.4209195673,
418.0299988,0.3913806975,
418.9299927,0.4039179981,
420,0.4073447585,
421.0599976,0.4093465805,
421.9599915,0.3523593545,
423.0299988,0.3014256656,
423.9299927,0.3139624596,
425,0.3185788393,
426.0599976,0.2759397924,
426.9599915,0.2808568776,
428.0299988,0.2865219712,
428.9299927,0.2889367044,
430,0.2863894403,
431.0400085,0.2982563972,
431.9400024,0.2904082239,
432.980011,0.2949533463,
434.019989,0.3151170909,
435.0700073,0.3147402108,
435.9700012,0.2939202189,
437.0100098,0.3009364009,
438.0499878,0.3487923741,
438.9500122,0.3757452071,
440,0.4715566039,
441.0599976,0.4915951788,
441.9599915,0.5666553378,
443.0299988,0.6773092151,
443.9299927,0.6609706283,
445,0.733713448,
446.0599976,0.6612218618,
446.9599915,0.6403341889,
448.0299988,0.5011793375,
448.9299927,0.4889788032,
450,0.4131557941,
451.0599976,0.3005024493,
451.9599915,0.2587658763,
453.0299988,0.2348567843,
453.9299927,0.2332922518,
455,0.1708361208,
456.0599976,0.2572467327,
456.9599915,0.2202033699,
458.0299988,0.1976815313,
458.9299927,0.1730047911,
460,0.182079047,
461.0400085,0.1587414593,
461.9400024,0.1878110617,
462.980011,0.1797729731,
464.019989,0.1759465039,
465.0700073,0.1961331218,
465.9700012,0.171665132,
467.0100098,0.1621581316,
468.0499878,0.1709678769,
468.9500122,0.1554282159,
470,0.1448104829,
471.0400085,0.13956967,
471.9400024,0.1649237871,
472.980011,0.1898628324,
474.019989,0.1401772946,
475.0700073,0.09746882319,
475.9700012,0.1350567788,
477.0100098,0.1458580643,
478.0499878,0.1350592524,
478.9500122,0.1035650894,
480,0.1345868856,
481.0400085,0.1224258617,
481.9400024,0.07221922278,
482.980011,0.1657466739,
484.019989,0.123207517,
485.0700073,0.08608463407,
485.9700012,0.119959183,
487.0100098,0.1207422167,
488.0499878,0.1503514051,
488.9500122,0.1016027108,
490,0.1113043278,
491.0400085,0.08255342394,
491.9400024,0.1074536592,
492.980011,0.1157573238,
494.019989,0.1015548036,
495.0700073,0.09663243592,
495.9700012,0.09377855062,
497.0100098,0.07446216047,
498.0499878,0.09385719895,
498.9500122,0.0495325923,
500,0.07157950103,
501.0400085,0.05658786744,
501.9400024,0.06254099309,
502.980011,0.07395125926,
504.019989,0.04859049618,
505.0700073,0.03221791238,
505.9700012,0.08160045743,
507.0100098,0.07946415246,
508.0499878,0.07875792682,
508.9500122,0.07927034795,
510,0.0713308081,
511.0400085,0.1144761071,
511.9400024,0.08860417455,
512.9799805,0.09698111564,
514.0200195,0.030778341,
515.0700073,0.08604471385,
515.9699707,0.03928283975,
517.0100098,0.06624232978,
518.0499878,0.08038536459,
518.9500122,0.04678186029,
520,0.08155043423,
521.0200195,0.05297924951,
522.0499878,0.09121828526,
522.9400024,0.06120020524,
523.9699707,0.03951886669,
525,0.07355313003,
526.0200195,0.05211145431,
527.0499878,0.07363993675,
527.9400024,0.0655143857,
528.9699707,0.05479191244,
530,0.07760508358,
531.039978,0.04773842916,
531.9400024,0.02642267756,
532.9799805,0.06789999455,
534.0200195,0.04176623374,
535.0700073,0.04259088635,
535.9699707,0.02955628559,
537.0100098,0.03856751695,
538.0499878,0.03549267724,
538.9500122,0.04165817425,
540,0.0229342021,
541.0200195,0.01657372713,
542.0499878,0.02496875264,
542.9400024,0.03221686929,
543.9699707,0.06759415567,
545,0.04842592776,
546.0200195,0.03581619263,
547.0499878,0.03535276279,
547.9400024,0.04494099319,
548.9699707,0.03449796513,
550,0.03611975536,
551.0200195,0.04936909303,
552.0499878,0.04961984232,
552.9400024,0.02171826176,
553.9699707,0.03452264145,
555,0.04182440788,
556.0200195,0.03194911405,
557.0499878,0.05869147182,
557.9400024,0.04431759566,
558.9699707,0.01431032829,
560,0.01150757913,
561.0200195,0.03170234337,
562.0499878,0.0428779684,
562.9400024,0.01628896035,
563.9699707,0.01456297282,
565,0.01731259562,
566.0200195,0.0307118576,
567.0499878,0.03612466156,
567.9400024,0.03747121245,
568.9699707,0.005866212305,
570,0.03361029923,
571.0100098,0.03946721926,
572.0200195,0.03334091976,
573.039978,0.04286846146,
574.0499878,0.01594537869,
575.0700073,0.02341632545,
575.9400024,0.01039951947,
576.9500122,0.02273576707,
577.9699707,0.02741125226,
578.9799805,0.02648332343,
580,0.03609253839,
581.0200195,0.02775011025,
582.0499878,0.001433599275,
582.9400024,0.001469347975,
583.9699707,0.02238655463,
585,-0.00883575622,
586.0200195,0.03647505119,
587.0499878,0.03749131039,
587.9400024,0.005792039912,
588.9699707,0.01678997092,
590,0.02702325955,
591.0100098,0.02051859349,
592.0200195,0.04328771681,
593.039978,0.01333519071,
594.0499878,0.05453438684,
595.0700073,0.05305160582,
595.9400024,0.03141431883,
596.9500122,0.03506444395,
597.9699707,0.03714390099,
598.9799805,0.03238546848,
600,0.03549466282,
601.0100098,0.02074525878,
602.0200195,0.01473266073,
603.039978,0.001536348485,
604.0499878,0.04620011523,
605.0700073,0.004470899235,
605.9400024,0.002937267302,
606.9500122,0.02054756321,
607.9699707,0.04364301637,
608.9799805,0.02749220468,
610,0.05128648505,
611.0100098,0.04517957568,
612.0200195,0.01498080231,
613.039978,0.01359504275,
614.0499878,-0.008722972125,
615.0700073,0.03418066725,
615.9400024,0.02054698952,
616.9500122,0.01451677922,
617.9699707,0.01835147291,
618.9799805,0.04819352552,
620,0.007274166215,
621.0100098,0.005808305461,
622.0200195,0.01756152324,
623.039978,0.0237640813,
624.0499878,0.007394043263,
625.0700073,0.02713618241,
625.9400024,-0.00285398704,
626.9500122,0.02169959992,
627.9699707,-0.01737616956,
628.9799805,0.02505061589,
630,-0.01304153167,
631,0.01424253918,
632,-0.005823467392,
633,0.04215214401,
634,0.01624690555,
635,0.03232437372,
636,0.05537582561,
637,0.01039203163,
638,0.01888648234,
639,0.004343708977,
640,0.03777378798,
641.0100098,0.03118643165,
642.0200195,0.01743722148,
643.039978,0.01545056701,
644.0499878,0.002885361668,
645.0700073,0.004333919846,
645.9400024,0.005640293472,
646.9500122,0.04071630538,
647.9699707,0.04904676229,
648.9799805,0.02412261255,
650,-0.03134287149,
651,0.02716964856,
652,0.002941340907,
653,0.008511471562,
654,-0.001499940758,
655,0.01187096816,
656,0.006136164535,
657,0.01890906505,
658,0.0175251551,
659,0.04233719409,
660,0.009086958133,
661,0.0329201147,
662,0.03256272897,
663,-0.0235382393,
664,0.02566193417,
665,0.01734352112,
666,0.03056403808,
667,0.03544826433,
668,0.007332389243,
669,0.02871401422,
670,0.01676888764,
670.9799805,0.01277773827,
671.9699707,-0.001441786531,
672.9500122,0.02609531395,
673.9400024,0.0189059563,
675.0700073,-0.004348172806,
676.0499878,0.01010858081,
677.039978,-0.008568674326,
678.0200195,0.03249115124,
679.0100098,0.03459319845,
680,-0.02560571767,
681,0.02866499871,
682,0.02594156936,
683,0.01301014237,
684,0.02008642815,
685,0.02601490542,
686,0.02934608236,
687,0.02929900587,
688,0.01871160604,
689,0.01154834405,
690,-0.01161175501,
690.9799805,0.02987015061,
691.9699707,-0.004355767276,
692.9500122,-0.001444560708,
693.9400024,0.0262764506,
695.0700073,0.05205600336,
696.0499878,0.001446183887,
697.039978,-0.00294337119,
698.0200195,0.01133406069,
699.0100098,0.04604362696,
700,0.02807328664,

Sample 2,
Sample 2
Collection Time: 8/08/2023 3:50:17 PM
Operator Name  :
Scan Software Version: 1.2(147)
Parameter List :
Instrument                        Cary Eclipse
Instrument Serial Number          test
Data mode                         Fluorescence
Scan mode                         Emission
X Mode                            Wavelength (nm)
Start (nm)                        400.00
Stop (nm)                         700.00
Ex. Wavelength (nm)               390.00
Ex. Slit (nm)                     5
Em. Slit (nm)                     5
Scan rate (nm/min)                120.00
Data interval (nm)                1.0000
Averaging Time (s)                0.5000
Excitation filter                 Auto
Emission filter                   Open
PMT voltage (V)                   Medium
Corrected spectra                 OFF
Method Log     :
Method Name    : Default
Date/Time stamp: 8/08/2023 3:45:53 PM
Method Modifications:
Overlayed Graphs Changed: 8/08/2023 3:46:16 PM, Old:OFF, New:ON
Scan Control Changed: 8/08/2023 3:46:16 PM, Old:Medium, New:Slow
Ave. time (s): Changed: 8/08/2023 3:46:16 PM, Old:0.10000, New:0.50000
Excitation Wavelength Changed: 8/08/2023 3:46:16 PM, Old: 350.00, New: 390.00
Stop Wavelength Changed: 8/08/2023 3:46:16 PM, Old: 600.00, New: 700.00
End Method Modifications

