Sample 11,,
Wavelength (nm),Intensity (a.u.),
640,0.2666028142,
641.0100098,-0.1102195606,
642.0200195,-0.02242730744,
643.039978,0.01126785949,
644.0499878,0.09749719501,
645.0700073,0.04554356262,
645.9400024,-0.01678340323,
646.9500122,0.03944284096,
647.9699707,-0.08452419192,
648.9799805,0,
650,0.09383118898,
651,0.169739902,
652,0.02281204052,
653,0.1066780463,
654,0.04494786263,
655,-0.02223445103,
656,0.1897226125,
657,0.1895660609,
658,0.05118172988,
659,0.03878803924,
660,0.05051837489,
661,0.08432935923,
662,-0.02233613655,
663,-0.06197915971,
664,0.03376002237,
665,0.0400592871,
666,0.03387285396,
667,-0.05617219955,
668,0.129624933,
669,0.01141989231,
670,0.09078632295,
670.9799805,0.1191252843,
671.9699707,0.1190996021,
672.9500122,0.0562781021,
673.9400024,0.1008866802,
675.0700073,0.05075913295,
676.0499878,0.1504708081,
677.039978,-0.01133266464,
678.0200195,0.07837077975,
679.0100098,0.1138355732,
680,0.05030630901,
681,0.01687621325,
682,0.03327657655,
683,0.2681429386,
684,0.09590756893,
685,0.05086326227,
686,0.1680672318,
687,-0.05648345128,
688,0.04465332255,
689,0.07265654951,
690,0.07304150611,
690.9799805,0.113228485,
691.9699707,-0.02243296616,
692.9500122,0.02251732349,
693.9400024,0.0339810513,
695.0700073,0.06269735843,
696.0499878,0.02828774229,
697.039978,0.09657829255,
698.0200195,0.08503160626,
699.0100098,-0.02352858149,
700,0.2255643308,
700.9799805,0.1366205812,
701.9699707,0.03412134573,
702.9500122,0.01691036485,
703.9400024,0.1083238348,
705.0700073,0.01710795797,
706.0499878,0.140953064,
707.039978,0.005598163698,
708.0200195,0.04585998878,
709.0100098,0.07942541689,
710,0.02265211008,
710.9799805,0.09453898668,
711.9699707,-0.05038911849,
712.9500122,0.03333963081,
713.9400024,0.0338485837,
715.0700073,0.07849337161,
716.0499878,0.09492433816,
717.039978,0.01113158092,
718.0200195,0.0339810513,
719.0100098,0.04524374753,
720,-0.03350046277,
720.9699707,0.05090756714,
721.9400024,-0.01143151056,
723.0499878,0.02282896452,
724.0200195,0.1117574424,
725,0.1193731204,
725.9699707,0.00562686054,
726.9400024,0.1296702325,
728.0499878,0.1799714267,
729.0200195,-0.01131496858,
730,0.0457736589,
730.9799805,0.005675239954,
731.9699707,0.04569026828,
732.9500122,-0.02278423309,
733.9400024,0.05696999654,
735.0700073,0.1425630599,
736.0499878,0.0113668656,
737.039978,0.05107599869,
738.0200195,-0.05582662672,
739.0100098,0.1198890135,
740,0.1192897186,
740.9500122,-0.03392647952,
742.0499878,0.1528472006,
743.0100098,-0.005597098731,
743.9699707,0.04994228855,
745.0599976,0.1068538353,
746.0200195,0.00561305834,
746.9799805,0.01666972227,
747.9400024,-0.03928258643,
749.039978,0.03918056563,
750,0.07228486985,
750.9699707,0.07330096513,
751.9400024,0.02787689492,
753.0499878,0.2109657824,
754.0200195,-0.02244656347,
755,0.1136951447,
755.9699707,0.04471997172,
756.9400024,0.05053000525,
758.0499878,0.0942350328,
759.0200195,-0.02245084569,
760,0.06732797623,
760.9699707,0.09495986998,
761.9400024,-0.005566936918,
763.0499878,-0.02795169875,
764.0200195,0.022385763,
765,-0.05638695136,
765.9699707,0.1252640486,
766.9400024,0.09090857208,
768.0499878,0.0344805792,
769.0200195,0.181961894,
770,0.045268327,
770.9500122,-0.01682887971,
772.0499878,0.07831861079,
773.0100098,0.02813414298,
773.9699707,-0.02828710154,
775.0599976,0.01133741904,
776.0200195,0.1419422179,
776.9799805,-0.01121170539,
777.9400024,-0.005630852655,
779.039978,0.1116825491,
780,0.03376610577,
780.9400024,0.1019552723,
782.0200195,0.05001444742,
782.9699707,0.1067769602,
784.0499878,0.02798251621,
785,0.2112178952,
785.9400024,0.06130490452,
787.0200195,0.07283933461,
787.9699707,0.028194746,
789.0499878,0.0845656395,
790,0.1329912543,
790.9500122,0.02254499123,
792.0499878,0.06706833094,
793.0100098,0.07220858335,
793.9699707,0.1446952522,
795.0599976,0.187999025,
796.0200195,0.1665167958,
796.9799805,0.01106384397,
797.9400024,0.02781826816,
799.039978,0.08340933174,
800,0.1501726955,
800.9400024,0.1149623469,
802.0200195,0.08463100344,
802.9699707,0.1059788838,
804.0499878,0.187303111,
805,-0.08437157422,
805.9400024,0.04477478564,
807.0200195,0.213461563,
807.9699707,0.1126487702,
809.0499878,0.05666846037,
810,0.1244850829,
810.9400024,0.1743208617,
812.0200195,-0.07872908562,
812.9699707,0.1349557936,
814.0499878,0.005601268262,
815,0.09085075557,
815.9400024,0.1702127606,
817.0200195,0.1685345918,
817.9699707,0.0445513688,
819.0499878,0.1169037223,
820,0.01124005951,
820.9400024,0.0558225736,
822.0200195,0.07908666134,
822.9699707,0.1569691449,
824.0499878,0.03377313539,
825,0.03366210312,
825.9400024,-0.06146521494,
827.0200195,0.03355610743,
827.9699707,0.1252219826,
829.0499878,0.1011525765,
830,0.06211600825,
831.0599976,0.005659757648,
832,0.08982103318,
833.0599976,0.2534226179,
834,0.1977903992,
835.0599976,0.02822403051,
836,0.04525194317,
837.0599976,0.05113113299,
838,0.06927646697,
839.0599976,-0.05569510162,
840,0,
841.0599976,0.02233975381,
842,0.05577369407,
843.0599976,-0.02834627777,
844,-0.005692621227,
845.0599976,0.02778843045,
846,0.06317771971,
847.0599976,0.05782285333,
848,0.04567461461,
849.0599976,0.1244076565,
850,-0.07351527363,

Sample 11,
Sample 11
Collection Time: 8/08/2023 4:21:52 PM
Operator Name  :
Scan Software Version: 1.2(147)
Parameter List :
Instrument                        Cary Eclipse
Instrument Serial Number          test
Data mode                         Fluorescence
Scan mode                         Emission
X Mode                            Wavelength (nm)
Start (nm)                        640.00
Stop (nm)                         850.00
Ex. Wavelength (nm)               630.00
Ex. Slit (nm)                     5
Em. Slit (nm)                     5
Scan rate (nm/min)                120.00
Data interval (nm)                1.0000
Averaging Time (s)                0.5000
Excitation filter                 Auto
Emission filter                   Open
PMT voltage (V)                   Medium
Corrected spectra                 OFF
Method Log     :
Method Name    : Default
Date/Time stamp: 8/08/2023 3:45:53 PM
Method Modifications:
Overlayed Graphs Changed: 8/08/2023 3:46:16 PM, Old:OFF, New:ON
Scan Control Changed: 8/08/2023 3:46:16 PM, Old:Medium, New:Slow
Ave. time (s): Changed: 8/08/2023 3:46:16 PM, Old:0.10000, New:0.50000
Excitation Wavelength Changed: 8/08/2023 3:46:16 PM, Old: 350.00, New: 390.00
Stop Wavelength Changed: 8/08/2023 3:46:16 PM, Old: 600.00, New: 700.00
Scan mode: Changed: 8/08/2023 3:53:59 PM, Old:Emission, New:Excitation
User Delta Stop Changed: 8/08/2023 3:53:59 PM, Old: 450.00, New: 550.00
User Delta Increment Changed: 8/08/2023 3:53:59 PM, Old:  10.00, New:   0.15
Excitation Wavelength Changed: 8/08/2023 3:53:59 PM, Old: 390.00, New: 220.00
Emission Wavelength Changed: 8/08/2023 3:53:59 PM, Old: 400.00, New: 550.00
Stop Wavelength Changed: 8/08/2023 3:53:59 PM, Old: 700.00, New: 540.00
Scan mode: Changed: 8/08/2023 4:01:40 PM, Old:Excitation, New:Emission
Excitation Wavelength Changed: 8/08/2023 4:01:40 PM, Old: 220.00, New: 420.00
Emission Wavelength Changed: 8/08/2023 4:01:40 PM, Old: 550.00, New: 430.00
Stop Wavelength Changed: 8/08/2023 4:01:40 PM, Old: 540.00, New: 700.00
Scan mode: Changed: 8/08/2023 4:08:47 PM, Old:Emission, New:Excitation
Excitation Wavelength Changed: 8/08/2023 4:08:47 PM, Old: 420.00, New: 220.00
Emission Wavelength Changed: 8/08/2023 4:08:47 PM, Old: 430.00, New: 540.00
Stop Wavelength Changed: 8/08/2023 4:08:47 PM, Old: 700.00, New: 530.00
Scan mode: Changed: 8/08/2023 4:17:05 PM, Old:Excitation, New:Emission
User Delta Stop Changed: 8/08/2023 4:17:05 PM, Old: 550.00, New: 585.00
Excitation Wavelength Changed: 8/08/2023 4:17:05 PM, Old: 220.00, New: 585.00
Emission Wavelength Changed: 8/08/2023 4:17:05 PM, Old: 540.00, New: 595.00
Stop Wavelength Changed: 8/08/2023 4:17:05 PM, Old: 530.00, New: 750.00
User Delta Stop Changed: 8/08/2023 4:19:05 PM, Old: 585.00, New: 630.00
Excitation Wavelength Changed: 8/08/2023 4:19:05 PM, Old: 585.00, New: 630.00
Emission Wavelength Changed: 8/08/2023 4:19:05 PM, Old: 595.00, New: 640.00
Stop Wavelength Changed: 8/08/2023 4:19:05 PM, Old: 750.00, New: 850.00
End Method Modifications

