Sample 48,,
Wavelength (nm),Intensity (a.u.),
647.9699707,0,
648.9799805,0.1983405501,
650,0.3963273764,
651,-0.06566634774,
652,0.3366323411,
653,0.1680898219,
654,0.476287663,
655,0.1722890288,
656,0.1369394064,
657,0.3426417708,
658,0.4053780138,
659,0.06870727241,
660,0.5236150622,
661,0.2741603851,
662,0.6137898564,
663,0.378501147,
664,0.3814676106,
665,0.3076502383,
666,0.6175168753,
667,0.3819709718,
668,1.033306956,
669,0.7976417542,
670,1.333515763,
670.9799805,1.31560719,
671.9699707,1.333150983,
672.9500122,1.279789686,
673.9400024,1.717976928,
675.0700073,1.939501166,
676.0499878,2.208855629,
677.039978,2.305162907,
678.0200195,2.504992962,
679.0100098,3.221431017,
680,3.152628422,
681,3.665614367,
682,4.610813141,
683,4.275696754,
684,5.256375313,
685,5.537136555,
686,6.894668579,
687,7.055289745,
688,8.044639587,
689,8.565527916,
690,9.300888062,
690.9799805,10.52989197,
691.9699707,11.74863434,
692.9500122,12.77944374,
693.9400024,13.89830494,
695.0700073,15.46234417,
696.0499878,16.76999855,
697.039978,18.43981361,
698.0200195,20.07592583,
699.0100098,21.89583397,
700,23.86659431,
700.9799805,25.7088604,
701.9699707,27.64046478,
702.9500122,29.9380703,
703.9400024,31.23186684,
705.0700073,34.82262421,
706.0499878,37.42189789,
707.039978,40.22130203,
708.0200195,41.01495743,
709.0100098,43.74133682,
710,45.5921936,
710.9799805,47.5949707,
711.9699707,49.4005928,
712.9500122,51.16058731,
713.9400024,53.4270401,
715.0700073,54.60555267,
716.0499878,57.30766296,
717.039978,58.12408447,
718.0200195,59.07633591,
719.0100098,58.6784668,
720,60.24792099,
720.9699707,59.12254333,
721.9400024,61.00365067,
723.0499878,59.89512253,
724.0200195,60.20394516,
725,58.71020126,
725.9699707,57.19601059,
726.9400024,57.32548904,
728.0499878,55.5613327,
729.0200195,56.461689,
730,53.71339417,
730.9799805,51.91096878,
731.9699707,51.53753662,
732.9500122,48.69470978,
733.9400024,47.54487228,
735.0700073,46.76623535,
736.0499878,43.33660507,
737.039978,42.63235092,
738.0200195,40.8211441,
739.0100098,39.37410736,
740,37.96907806,
740.9500122,36.61590576,
742.0499878,34.11923218,
743.0100098,33.59058762,
743.9699707,30.63885307,
745.0599976,29.63612938,
746.0200195,29.03504372,
746.9799805,27.07562447,
747.9400024,26.34227562,
749.039978,24.54914856,
750,24.45818329,
750.9699707,22.40394592,
751.9400024,21.10782051,
753.0499878,20.88222313,
754.0200195,18.84009361,
755,18.02721024,
755.9699707,17.76641273,
756.9400024,16.86060333,
758.0499878,15.96866512,
759.0200195,14.79082489,
760,14.68697071,
760.9699707,14.3404417,
761.9400024,13.10401344,
763.0499878,12.74533081,
764.0200195,12.32453537,
765,11.92301178,
765.9699707,11.99932957,
766.9400024,11.12572098,
768.0499878,10.67918301,
769.0200195,10.58720016,
770,9.894929886,
770.9500122,10.69627953,
772.0499878,9.226521492,
773.0100098,9.576960564,
773.9699707,9.184535027,
775.0599976,8.952367783,
776.0200195,8.656819344,
776.9799805,9.43751049,
777.9400024,8.292321205,
779.039978,8.319581985,
780,8.437096596,
780.9400024,8.344639778,
782.0200195,7.924849987,
782.9699707,8.135126114,
784.0499878,7.977345943,
785,8.040540695,
785.9400024,8.260513306,
787.0200195,7.879118443,
787.9699707,8.027444839,
789.0499878,8.095188141,
790,7.707537651,
790.9500122,7.874015808,
792.0499878,7.855239391,
793.0100098,8.318117142,
793.9699707,7.783312321,
795.0599976,7.881300449,
796.0200195,7.380074024,
796.9799805,8.443490982,
797.9400024,7.392770767,
799.039978,7.644994259,
800,7.176543236,
800.9400024,7.476700306,
802.0200195,8.016878128,
802.9699707,7.96566534,
804.0499878,7.521131516,
805,7.133078575,
805.9400024,7.388823986,
807.0200195,7.249407291,
807.9699707,6.413454056,
809.0499878,6.90420866,
810,6.296308994,
810.9400024,6.242413521,
812.0200195,6.136458397,
812.9699707,6.400277138,
814.0499878,5.722756386,
815,6.254080772,
815.9400024,5.681818485,
817.0200195,6.061445713,
817.9699707,5.210504532,
819.0499878,4.806836605,
820,5.524094105,
820.9400024,4.877028942,
822.0200195,4.702521801,
822.9699707,4.414237499,
824.0499878,4.143206596,
825,4.274246693,
825.9400024,4.259963512,
827.0200195,4.075289249,
827.9699707,3.678872347,
829.0499878,3.47511816,
830,3.302941799,
831.0599976,2.937009811,
832,2.436095476,
833.0599976,2.66884923,
834,2.786510468,
835.0599976,2.138447285,
836,2.476456404,
837.0599976,2.241302013,
838,1.88606751,
839.0599976,1.565424442,
840,1.45062685,
841.0599976,1.449575543,
842,1.24978888,
843.0599976,1.071811318,
844,1.212380648,
845.0599976,0.8540585041,
846,0.7562475801,
847.0599976,0.8544671535,
848,0.7888329029,
849.0599976,0.6899644732,
850,0.7659100294,

Sample 48,
Sample 48
Collection Time: 21/05/2023 4:54:30 PM
Operator Name  :
Scan Software Version: 1.2(147)
Parameter List :
Instrument                        Cary Eclipse
Instrument Serial Number          test
Data mode                         Fluorescence
Scan mode                         Emission
X Mode                            Wavelength (nm)
Start (nm)                        648.00
Stop (nm)                         850.00
Ex. Wavelength (nm)               638.00
Ex. Slit (nm)                     5
Em. Slit (nm)                     5
Scan rate (nm/min)                600.00
Data interval (nm)                1.0000
Averaging Time (s)                0.1000
Excitation filter                 Auto
Emission filter                   Open
PMT voltage (V)                   Medium
Corrected spectra                 OFF
Method Log     :
Method Name    : Default
Date/Time stamp: 21/05/2023 11:47:26 AM
Method Modifications:
Overlayed Graphs Changed: 21/05/2023 1:20:46 PM, Old:OFF, New:ON
Excitation Wavelength Changed: 21/05/2023 1:20:46 PM, Old: 350.00, New: 341.00
Emission Wavelength Changed: 21/05/2023 1:20:46 PM, Old: 400.00, New: 351.00
Stop Wavelength Changed: 21/05/2023 1:20:46 PM, Old: 600.00, New: 650.00
PMT Volts Changed: 21/05/2023 1:21:47 PM, Old:600, New:800
Emission PMT (V): Changed: 21/05/2023 1:21:47 PM, Old: 600, New: 800
Scan mode: Changed: 21/05/2023 1:22:38 PM, Old:Emission, New:Excitation
Excitation Wavelength Changed: 21/05/2023 1:22:38 PM, Old: 341.00, New: 220.00
Emission Wavelength Changed: 21/05/2023 1:22:38 PM, Old: 351.00, New: 381.00
Stop Wavelength Changed: 21/05/2023 1:22:38 PM, Old: 650.00, New: 371.00
Scan mode: Changed: 21/05/2023 1:24:38 PM, Old:Excitation, New:Emission
Excitation Wavelength Changed: 21/05/2023 1:24:38 PM, Old: 220.00, New: 381.00
Emission Wavelength Changed: 21/05/2023 1:24:38 PM, Old: 381.00, New: 220.00
Excitation Wavelength Changed: 21/05/2023 1:24:52 PM, Old: 381.00, New: 339.00
Emission Wavelength Changed: 21/05/2023 1:24:52 PM, Old: 220.00, New: 349.00
Stop Wavelength Changed: 21/05/2023 1:24:52 PM, Old: 371.00, New: 650.00
User Delta Stop Changed: 21/05/2023 1:31:08 PM, Old: 450.00, New: 553.00
User Delta Increment Changed: 21/05/2023 1:31:08 PM, Old:  10.00, New:   0.15
Excitation Wavelength Changed: 21/05/2023 1:31:08 PM, Old: 339.00, New: 553.00
Emission Wavelength Changed: 21/05/2023 1:31:08 PM, Old: 349.00, New: 563.00
Stop Wavelength Changed: 21/05/2023 1:31:08 PM, Old: 650.00, New: 850.00
PMT Volts Changed: 21/05/2023 1:31:49 PM, Old:800, New:600
Emission PMT (V): Changed: 21/05/2023 1:31:49 PM, Old: 800, New: 600
Scan mode: Changed: 21/05/2023 1:33:46 PM, Old:Emission, New:Excitation
User Delta Stop Changed: 21/05/2023 1:33:46 PM, Old: 553.00, New: 630.00
Excitation Wavelength Changed: 21/05/2023 1:33:46 PM, Old: 553.00, New: 220.00
Emission Wavelength Changed: 21/05/2023 1:33:46 PM, Old: 563.00, New: 630.00
Stop Wavelength Changed: 21/05/2023 1:33:46 PM, Old: 850.00, New: 620.00
Scan mode: Changed: 21/05/2023 1:43:42 PM, Old:Excitation, New:Emission
Excitation Wavelength Changed: 21/05/2023 1:43:42 PM, Old: 220.00, New: 352.00
Emission Wavelength Changed: 21/05/2023 1:43:42 PM, Old: 630.00, New: 362.00
Stop Wavelength Changed: 21/05/2023 1:43:42 PM, Old: 620.00, New: 650.00
Scan mode: Changed: 21/05/2023 1:45:14 PM, Old:Emission, New:Excitation
Excitation Wavelength Changed: 21/05/2023 1:45:14 PM, Old: 352.00, New: 220.00
Emission Wavelength Changed: 21/05/2023 1:45:14 PM, Old: 362.00, New: 377.00
Stop Wavelength Changed: 21/05/2023 1:45:14 PM, Old: 650.00, New: 367.00
Scan mode: Changed: 21/05/2023 1:48:20 PM, Old:Excitation, New:Emission
Excitation Wavelength Changed: 21/05/2023 1:48:20 PM, Old: 220.00, New: 350.00
Emission Wavelength Changed: 21/05/2023 1:48:20 PM, Old: 377.00, New: 360.00
Stop Wavelength Changed: 21/05/2023 1:48:20 PM, Old: 367.00, New: 550.00
Excitation Wavelength Changed: 21/05/2023 1:48:48 PM, Old: 350.00, New: 340.00
Emission Wavelength Changed: 21/05/2023 1:48:48 PM, Old: 360.00, New: 350.00
PMT Volts Changed: 21/05/2023 1:49:10 PM, Old:600, New:800
Emission PMT (V): Changed: 21/05/2023 1:49:10 PM, Old: 600, New: 800
Excitation Wavelength Changed: 21/05/2023 2:04:44 PM, Old: 340.00, New: 470.00
Emission Wavelength Changed: 21/05/2023 2:04:44 PM, Old: 350.00, New: 480.00
Stop Wavelength Changed: 21/05/2023 2:04:44 PM, Old: 550.00, New: 700.00
PMT Volts Changed: 21/05/2023 2:05:04 PM, Old:800, New:600
Emission PMT (V): Changed: 21/05/2023 2:05:04 PM, Old: 800, New: 600
Scan mode: Changed: 21/05/2023 2:07:15 PM, Old:Emission, New:Excitation
Excitation Wavelength Changed: 21/05/2023 2:07:15 PM, Old: 470.00, New: 220.00
Emission Wavelength Changed: 21/05/2023 2:07:15 PM, Old: 480.00, New: 540.00
Stop Wavelength Changed: 21/05/2023 2:07:15 PM, Old: 700.00, New: 530.00
Scan mode: Changed: 21/05/2023 2:14:20 PM, Old:Excitation, New:Emission
Excitation Wavelength Changed: 21/05/2023 2:14:20 PM, Old: 220.00, New: 366.00
Emission Wavelength Changed: 21/05/2023 2:14:20 PM, Old: 540.00, New: 376.00
Stop Wavelength Changed: 21/05/2023 2:14:20 PM, Old: 530.00, New: 550.00
Stop Wavelength Changed: 21/05/2023 2:15:00 PM, Old: 550.00, New: 650.00
Scan mode: Changed: 21/05/2023 2:17:05 PM, Old:Emission, New:Excitation
Excitation Wavelength Changed: 21/05/2023 2:17:05 PM, Old: 366.00, New: 220.00
Emission Wavelength Changed: 21/05/2023 2:17:05 PM, Old: 376.00, New: 445.00
Stop Wavelength Changed: 21/05/2023 2:17:05 PM, Old: 650.00, New: 435.00
Scan mode: Changed: 21/05/2023 3:04:18 PM, Old:Excitation, New:Emission
Excitation Wavelength Changed: 21/05/2023 3:04:18 PM, Old: 220.00, New: 335.00
Emission Wavelength Changed: 21/05/2023 3:04:18 PM, Old: 445.00, New: 345.00
Stop Wavelength Changed: 21/05/2023 3:04:18 PM, Old: 435.00, New: 650.00
Stop Wavelength Changed: 21/05/2023 3:05:08 PM, Old: 650.00, New: 700.00
Scan mode: Changed: 21/05/2023 3:07:25 PM, Old:Emission, New:Excitation
Excitation Wavelength Changed: 21/05/2023 3:07:25 PM, Old: 335.00, New: 220.00
Emission Wavelength Changed: 21/05/2023 3:07:25 PM, Old: 345.00, New: 508.00
Stop Wavelength Changed: 21/05/2023 3:07:25 PM, Old: 700.00, New: 498.00
Scan mode: Changed: 21/05/2023 3:13:25 PM, Old:Excitation, New:Emission
Excitation Wavelength Changed: 21/05/2023 3:13:25 PM, Old: 220.00, New: 427.00
Emission Wavelength Changed: 21/05/2023 3:13:25 PM, Old: 508.00, New: 437.00
Stop Wavelength Changed: 21/05/2023 3:13:25 PM, Old: 498.00, New: 650.00
Stop Wavelength Changed: 21/05/2023 3:13:58 PM, Old: 650.00, New: 750.00
Scan mode: Changed: 21/05/2023 3:16:50 PM, Old:Emission, New:Excitation
Excitation Wavelength Changed: 21/05/2023 3:16:50 PM, Old: 427.00, New: 220.00
Emission Wavelength Changed: 21/05/2023 3:16:50 PM, Old: 437.00, New: 528.00
Stop Wavelength Changed: 21/05/2023 3:16:50 PM, Old: 750.00, New: 518.00
Scan mode: Changed: 21/05/2023 4:47:47 PM, Old:Excitation, New:Emission
User Delta Stop Changed: 21/05/2023 4:47:47 PM, Old: 630.00, New: 696.00
Excitation Wavelength Changed: 21/05/2023 4:47:47 PM, Old: 220.00, New: 696.00
Emission Wavelength Changed: 21/05/2023 4:47:47 PM, Old: 528.00, New: 706.00
Stop Wavelength Changed: 21/05/2023 4:47:47 PM, Old: 518.00, New: 850.00
Excitation Wavelength Changed: 21/05/2023 4:48:12 PM, Old: 696.00, New: 587.00
Emission Wavelength Changed: 21/05/2023 4:48:12 PM, Old: 706.00, New: 597.00
Scan mode: Changed: 21/05/2023 4:49:20 PM, Old:Emission, New:Excitation
User Delta Stop Changed: 21/05/2023 4:49:20 PM, Old: 696.00, New: 750.00
Excitation Wavelength Changed: 21/05/2023 4:49:20 PM, Old: 587.00, New: 400.00
Emission Wavelength Changed: 21/05/2023 4:49:20 PM, Old: 597.00, New: 750.00
Stop Wavelength Changed: 21/05/2023 4:49:20 PM, Old: 850.00, New: 740.00
User Delta Stop Changed: 21/05/2023 4:50:16 PM, Old: 750.00, New: 760.00
Emission Wavelength Changed: 21/05/2023 4:50:16 PM, Old: 750.00, New: 760.00
Stop Wavelength Changed: 21/05/2023 4:50:16 PM, Old: 740.00, New: 750.00
Scan mode: Changed: 21/05/2023 4:54:28 PM, Old:Excitation, New:Emission
Excitation Wavelength Changed: 21/05/2023 4:54:28 PM, Old: 400.00, New: 638.00
Emission Wavelength Changed: 21/05/2023 4:54:28 PM, Old: 760.00, New: 648.00
Stop Wavelength Changed: 21/05/2023 4:54:28 PM, Old: 750.00, New: 850.00
End Method Modifications

